# team: unknown
# label: peace_baseline-EOG
# timestamp: 20260227_145535
# sample_rate: 250
# samples: 15314
# duration_sec: 61.275
# channels: EOG1,EOG2,EMG3
#
timestamp,EOG1,EOG2,EMG3
1772222074.6371458,29.0,215.0,-1420.0
1772222074.6451457,29.0,214.0,-1424.0
1772222074.6546636,29.0,214.0,-1420.0
1772222074.6626635,29.0,214.0,-1417.0
1772222074.6566958,28.0,214.0,-1419.0
1772222074.6646957,28.0,214.0,-1424.0
1772222074.6574244,29.0,215.0,-1423.0
1772222074.6654243,30.0,215.0,-1418.0
1772222074.6822262,30.0,216.0,-1417.0
1772222074.690226,30.0,215.0,-1422.0
1772222074.683234,30.0,215.0,-1423.0
1772222074.6912339,30.0,216.0,-1419.0
1772222074.7084737,30.0,215.0,-1418.0
1772222074.7164736,30.0,215.0,-1422.0
1772222074.709315,30.0,216.0,-1425.0
1772222074.717315,31.0,216.0,-1420.0
1772222074.7230816,32.0,217.0,-1416.0
1772222074.7310815,30.0,216.0,-1421.0
1772222074.724864,29.0,215.0,-1424.0
1772222074.732864,30.0,216.0,-1421.0
1772222074.7274723,30.0,216.0,-1418.0
1772222074.7354722,30.0,216.0,-1421.0
1772222074.7296953,30.0,216.0,-1425.0
1772222074.7376952,30.0,217.0,-1423.0
1772222074.7296953,30.0,217.0,-1419.0
1772222074.7376952,30.0,216.0,-1419.0
1772222074.750842,30.0,216.0,-1425.0
1772222074.758842,31.0,215.0,-1422.0
1772222074.7523654,31.0,215.0,-1417.0
1772222074.7603652,29.0,216.0,-1419.0
1772222074.753377,30.0,216.0,-1422.0
1772222074.7613769,29.0,215.0,-1422.0
1772222074.7617252,30.0,215.0,-1417.0
1772222074.769725,31.0,216.0,-1416.0
1772222074.7684798,33.0,216.0,-1419.0
1772222074.7764797,32.0,216.0,-1417.0
1772222074.7775176,33.0,217.0,-1412.0
1772222074.7855175,32.0,217.0,-1411.0
1772222074.7960086,32.0,217.0,-1418.0
1772222074.8040085,32.0,218.0,-1422.0
1772222074.7985497,32.0,217.0,-1419.0
1772222074.8065495,31.0,217.0,-1417.0
1772222074.82427,31.0,216.0,-1421.0
1772222074.83227,31.0,216.0,-1424.0
1772222074.8360593,31.0,216.0,-1418.0
1772222074.8440592,31.0,216.0,-1415.0
1772222074.8468125,30.0,215.0,-1418.0
1772222074.8548124,31.0,215.0,-1421.0
1772222074.8478906,31.0,215.0,-1419.0
1772222074.8558905,30.0,216.0,-1415.0
1772222074.8509686,30.0,216.0,-1417.0
1772222074.8589685,31.0,216.0,-1420.0
1772222074.8515997,30.0,217.0,-1419.0
1772222074.8595996,31.0,217.0,-1414.0
1772222074.8531191,31.0,217.0,-1414.0
1772222074.861119,30.0,216.0,-1419.0
1772222074.8575313,29.0,216.0,-1418.0
1772222074.8655312,30.0,216.0,-1413.0
1772222074.865191,31.0,216.0,-1412.0
1772222074.8731909,30.0,215.0,-1420.0
1772222074.8746,30.0,215.0,-1421.0
1772222074.8825998,30.0,216.0,-1416.0
1772222074.8898346,31.0,217.0,-1413.0
1772222074.8978345,30.0,216.0,-1419.0
1772222074.8898346,29.0,216.0,-1421.0
1772222074.8978345,30.0,216.0,-1417.0
1772222074.8980684,31.0,216.0,-1414.0
1772222074.9060683,30.0,216.0,-1418.0
1772222074.90524,30.0,216.0,-1421.0
1772222074.91324,29.0,215.0,-1419.0
1772222074.915078,30.0,215.0,-1415.0
1772222074.9230778,30.0,216.0,-1418.0
1772222074.939654,30.0,216.0,-1422.0
1772222074.947654,30.0,215.0,-1419.0
1772222074.939654,30.0,216.0,-1414.0
1772222074.947654,30.0,217.0,-1418.0
1772222074.9798992,30.0,216.0,-1423.0
1772222074.987899,30.0,216.0,-1420.0
1772222074.9814227,29.0,216.0,-1414.0
1772222074.9894226,30.0,217.0,-1415.0
1772222074.9814227,31.0,216.0,-1419.0
1772222074.9894226,31.0,217.0,-1422.0
1772222074.9827094,31.0,216.0,-1414.0
1772222074.9907093,30.0,217.0,-1411.0
1772222074.9827094,30.0,217.0,-1421.0
1772222074.9907093,30.0,216.0,-1421.0
1772222074.9827094,30.0,217.0,-1414.0
1772222074.9907093,30.0,217.0,-1412.0
1772222074.9852517,30.0,216.0,-1418.0
1772222074.9932516,30.0,216.0,-1420.0
1772222074.9933426,31.0,217.0,-1414.0
1772222075.0013425,30.0,216.0,-1410.0
1772222075.0025415,30.0,217.0,-1416.0
1772222075.0105414,29.0,216.0,-1418.0
1772222075.0279126,30.0,217.0,-1414.0
1772222075.0359125,30.0,217.0,-1409.0
1772222075.0279126,31.0,216.0,-1413.0
1772222075.0359125,31.0,217.0,-1419.0
1772222075.029925,31.0,217.0,-1414.0
1772222075.037925,30.0,218.0,-1412.0
1772222075.0345058,29.0,217.0,-1414.0
1772222075.0425057,29.0,215.0,-1418.0
1772222075.0750697,30.0,216.0,-1417.0
1772222075.0830696,31.0,216.0,-1411.0
1772222075.0750697,32.0,217.0,-1413.0
1772222075.0830696,31.0,216.0,-1419.0
1772222075.078628,30.0,217.0,-1418.0
1772222075.086628,31.0,217.0,-1413.0
1772222075.0847394,31.0,217.0,-1413.0
1772222075.0927393,29.0,217.0,-1418.0
1772222075.0868425,30.0,216.0,-1418.0
1772222075.0948424,31.0,217.0,-1415.0
1772222075.0881538,31.0,216.0,-1412.0
1772222075.0961537,31.0,217.0,-1418.0
1772222075.0897076,30.0,217.0,-1417.0
1772222075.0977075,30.0,217.0,-1411.0
1772222075.0957942,32.0,217.0,-1413.0
1772222075.103794,31.0,218.0,-1418.0
1772222075.1206887,31.0,218.0,-1421.0
1772222075.1286886,31.0,217.0,-1415.0
1772222075.1222095,32.0,218.0,-1413.0
1772222075.1302094,31.0,218.0,-1416.0
1772222075.1222095,31.0,217.0,-1418.0
1772222075.1302094,31.0,217.0,-1418.0
1772222075.1669998,31.0,217.0,-1412.0
1772222075.1749997,30.0,216.0,-1414.0
1772222075.167294,30.0,216.0,-1419.0
1772222075.175294,31.0,217.0,-1417.0
1772222075.167294,31.0,217.0,-1411.0
1772222075.175294,31.0,218.0,-1412.0
1772222075.167294,30.0,217.0,-1418.0
1772222075.175294,30.0,216.0,-1417.0
1772222075.182543,31.0,217.0,-1411.0
1772222075.190543,31.0,216.0,-1410.0
1772222075.182543,31.0,216.0,-1415.0
1772222075.190543,32.0,216.0,-1419.0
1772222075.1954484,31.0,217.0,-1413.0
1772222075.2034483,31.0,217.0,-1409.0
1772222075.1969736,30.0,217.0,-1414.0
1772222075.2049735,30.0,217.0,-1416.0
1772222075.2070405,30.0,217.0,-1411.0
1772222075.2150404,31.0,217.0,-1409.0
1772222075.2169929,31.0,217.0,-1414.0
1772222075.2249928,31.0,216.0,-1415.0
1772222075.2169929,31.0,217.0,-1409.0
1772222075.2249928,30.0,218.0,-1408.0
1772222075.2190068,30.0,217.0,-1413.0
1772222075.2270067,30.0,216.0,-1416.0
1772222075.2256477,30.0,216.0,-1413.0
1772222075.2336476,30.0,217.0,-1408.0
1772222075.233374,30.0,217.0,-1411.0
1772222075.241374,30.0,217.0,-1418.0
1772222075.2410252,30.0,217.0,-1415.0
1772222075.249025,31.0,217.0,-1408.0
1772222075.262925,31.0,217.0,-1410.0
1772222075.2709248,29.0,217.0,-1418.0
1772222075.2675762,30.0,217.0,-1417.0
1772222075.275576,31.0,216.0,-1412.0
1772222075.2679145,31.0,216.0,-1411.0
1772222075.2759144,30.0,217.0,-1417.0
1772222075.2727125,30.0,217.0,-1418.0
1772222075.2807124,31.0,216.0,-1413.0
1772222075.3106039,30.0,216.0,-1411.0
1772222075.3186038,30.0,216.0,-1416.0
1772222075.3121233,30.0,217.0,-1417.0
1772222075.3201232,31.0,217.0,-1411.0
1772222075.3121233,31.0,217.0,-1405.0
1772222075.3201232,32.0,217.0,-1409.0
1772222075.3131292,32.0,217.0,-1412.0
1772222075.321129,32.0,218.0,-1409.0
1772222075.314694,32.0,218.0,-1407.0
1772222075.3226938,31.0,219.0,-1414.0
1772222075.3208423,31.0,219.0,-1417.0
1772222075.3288422,31.0,218.0,-1415.0
1772222075.330356,31.0,218.0,-1412.0
1772222075.3383558,32.0,218.0,-1413.0
1772222075.338812,32.0,218.0,-1417.0
1772222075.346812,31.0,218.0,-1416.0
1772222075.3557935,32.0,218.0,-1409.0
1772222075.3637934,31.0,218.0,-1409.0
1772222075.357815,32.0,218.0,-1415.0
1772222075.365815,32.0,217.0,-1415.0
1772222075.362403,32.0,218.0,-1409.0
1772222075.3704028,31.0,217.0,-1408.0
1772222075.4032636,31.0,218.0,-1414.0
1772222075.4112635,30.0,218.0,-1413.0
1772222075.4032636,32.0,218.0,-1407.0
1772222075.4112635,32.0,218.0,-1409.0
1772222075.4045317,32.0,218.0,-1413.0
1772222075.4125316,32.0,217.0,-1413.0
1772222075.416937,32.0,218.0,-1409.0
1772222075.424937,32.0,218.0,-1405.0
1772222075.4184794,31.0,218.0,-1409.0
1772222075.4264793,31.0,217.0,-1416.0
1772222075.4282982,32.0,218.0,-1411.0
1772222075.4362981,32.0,219.0,-1409.0
1772222075.4298747,32.0,218.0,-1412.0
1772222075.4378746,32.0,218.0,-1416.0
1772222075.4298747,32.0,218.0,-1413.0
1772222075.4378746,32.0,218.0,-1408.0
1772222075.4491985,32.0,218.0,-1411.0
1772222075.4571984,32.0,218.0,-1416.0
1772222075.45072,32.0,218.0,-1412.0
1772222075.45872,32.0,219.0,-1408.0
1772222075.45072,32.0,219.0,-1411.0
1772222075.45872,32.0,219.0,-1415.0
1772222075.4568627,32.0,219.0,-1415.0
1772222075.4648626,31.0,219.0,-1409.0
1772222075.4654071,31.0,218.0,-1409.0
1772222075.473407,31.0,218.0,-1414.0
1772222075.473422,32.0,217.0,-1415.0
1772222075.481422,32.0,217.0,-1410.0
1772222075.4887757,32.0,217.0,-1407.0
1772222075.4967756,31.0,217.0,-1412.0
1772222075.499029,31.0,218.0,-1416.0
1772222075.5070288,31.0,218.0,-1411.0
1772222075.5055733,31.0,218.0,-1407.0
1772222075.5135732,31.0,217.0,-1411.0
1772222075.5055733,32.0,217.0,-1412.0
1772222075.5135732,31.0,217.0,-1412.0
1772222075.5425212,31.0,217.0,-1407.0
1772222075.5505211,32.0,217.0,-1410.0
1772222075.5425212,32.0,217.0,-1414.0
1772222075.5505211,32.0,217.0,-1412.0
1772222075.544545,31.0,218.0,-1407.0
1772222075.5525448,31.0,218.0,-1409.0
1772222075.5452747,30.0,217.0,-1413.0
1772222075.5532746,30.0,217.0,-1411.0
1772222075.5468369,32.0,217.0,-1406.0
1772222075.5548368,32.0,217.0,-1408.0
1772222075.5535154,31.0,218.0,-1413.0
1772222075.5615153,31.0,217.0,-1412.0
1772222075.5614293,31.0,217.0,-1407.0
1772222075.5694292,32.0,218.0,-1406.0
1772222075.5713227,32.0,218.0,-1412.0
1772222075.5793226,31.0,217.0,-1412.0
1772222075.592036,31.0,217.0,-1407.0
1772222075.600036,31.0,217.0,-1406.0
1772222075.592036,31.0,217.0,-1411.0
1772222075.600036,30.0,217.0,-1413.0
1772222075.597699,31.0,217.0,-1409.0
1772222075.6056988,31.0,217.0,-1404.0
1772222075.6023254,31.0,218.0,-1409.0
1772222075.6103253,31.0,218.0,-1412.0
1772222075.6099863,32.0,218.0,-1410.0
1772222075.6179862,32.0,218.0,-1404.0
1772222075.616837,32.0,218.0,-1408.0
1772222075.624837,33.0,218.0,-1411.0
1772222075.6295161,33.0,218.0,-1409.0
1772222075.637516,33.0,218.0,-1404.0
1772222075.6557312,33.0,218.0,-1407.0
1772222075.663731,32.0,218.0,-1412.0
1772222075.656868,33.0,219.0,-1411.0
1772222075.6648679,33.0,219.0,-1405.0
1772222075.6656978,33.0,218.0,-1406.0
1772222075.6736977,33.0,219.0,-1411.0
1772222075.6662982,33.0,219.0,-1412.0
1772222075.674298,32.0,219.0,-1408.0
1772222075.678476,33.0,219.0,-1406.0
1772222075.686476,34.0,219.0,-1412.0
1772222075.6848314,34.0,219.0,-1415.0
1772222075.6928313,34.0,218.0,-1408.0
1772222075.6863544,34.0,219.0,-1408.0
1772222075.6943543,35.0,220.0,-1411.0
1772222075.6894073,34.0,219.0,-1414.0
1772222075.6974072,34.0,219.0,-1408.0
1772222075.6970792,34.0,219.0,-1406.0
1772222075.705079,34.0,219.0,-1409.0
1772222075.7062907,34.0,219.0,-1412.0
1772222075.7142906,34.0,220.0,-1407.0
1772222075.7136073,35.0,221.0,-1402.0
1772222075.7216072,35.0,220.0,-1406.0
1772222075.73063,35.0,220.0,-1408.0
1772222075.7386298,35.0,220.0,-1406.0
1772222075.7326608,36.0,220.0,-1404.0
1772222075.7406607,36.0,220.0,-1406.0
1772222075.7367854,35.0,220.0,-1411.0
1772222075.7447853,35.0,220.0,-1408.0
1772222075.744688,35.0,220.0,-1402.0
1772222075.752688,34.0,220.0,-1403.0
1772222075.7787936,36.0,220.0,-1408.0
1772222075.7867935,36.0,220.0,-1409.0
1772222075.7787936,35.0,220.0,-1404.0
1772222075.7867935,35.0,220.0,-1404.0
1772222075.803986,35.0,220.0,-1410.0
1772222075.811986,35.0,220.0,-1411.0
1772222075.8065689,36.0,220.0,-1405.0
1772222075.8145688,36.0,219.0,-1403.0
1772222075.8309302,35.0,219.0,-1409.0
1772222075.8389301,35.0,219.0,-1409.0
1772222075.832577,35.0,220.0,-1406.0
1772222075.840577,34.0,220.0,-1404.0
1772222075.8498175,35.0,220.0,-1408.0
1772222075.8578174,35.0,219.0,-1410.0
1772222075.8514016,35.0,220.0,-1406.0
1772222075.8594015,36.0,221.0,-1403.0
1772222075.852412,37.0,221.0,-1406.0
1772222075.860412,36.0,220.0,-1410.0
1772222075.8536644,36.0,219.0,-1408.0
1772222075.8616643,36.0,220.0,-1403.0
1772222075.8541377,36.0,220.0,-1404.0
1772222075.8621376,36.0,220.0,-1410.0
1772222075.8728135,36.0,219.0,-1407.0
1772222075.8808134,37.0,220.0,-1401.0
1772222075.8728135,38.0,220.0,-1404.0
1772222075.8808134,38.0,221.0,-1409.0
1772222075.873846,37.0,221.0,-1410.0
1772222075.881846,36.0,220.0,-1406.0
1772222075.8900793,35.0,220.0,-1406.0
1772222075.8980792,35.0,220.0,-1413.0
1772222075.8917656,35.0,219.0,-1416.0
1772222075.8997655,35.0,219.0,-1410.0
1772222075.924859,35.0,220.0,-1407.0
1772222075.932859,36.0,220.0,-1412.0
1772222075.924859,35.0,220.0,-1412.0
1772222075.932859,34.0,220.0,-1407.0
1772222075.924859,35.0,220.0,-1405.0
1772222075.932859,35.0,219.0,-1408.0
1772222075.9258654,35.0,219.0,-1413.0
1772222075.9338653,35.0,219.0,-1409.0
1772222075.9386704,35.0,219.0,-1406.0
1772222075.9466703,34.0,218.0,-1408.0
1772222075.9386704,35.0,219.0,-1412.0
1772222075.9466703,36.0,219.0,-1409.0
1772222075.9396722,36.0,219.0,-1404.0
1772222075.9476721,35.0,218.0,-1405.0
1772222075.9413562,34.0,218.0,-1408.0
1772222075.949356,35.0,219.0,-1409.0
1772222075.946837,35.0,219.0,-1405.0
1772222075.9548368,35.0,219.0,-1406.0
1772222075.9701245,34.0,219.0,-1411.0
1772222075.9781244,35.0,219.0,-1408.0
1772222075.9845266,36.0,220.0,-1404.0
1772222075.9925265,36.0,220.0,-1403.0
1772222075.9845266,35.0,219.0,-1408.0
1772222075.9925265,35.0,219.0,-1410.0
1772222075.9860604,36.0,219.0,-1405.0
1772222075.9940603,37.0,220.0,-1402.0
1772222076.0127227,37.0,220.0,-1409.0
1772222076.0207226,36.0,220.0,-1411.0
1772222076.0127227,36.0,220.0,-1407.0
1772222076.0207226,36.0,221.0,-1404.0
1772222076.0299733,37.0,221.0,-1407.0
1772222076.0379732,36.0,220.0,-1411.0
1772222076.0314977,37.0,220.0,-1408.0
1772222076.0394976,37.0,221.0,-1404.0
1772222076.034594,37.0,221.0,-1408.0
1772222076.042594,37.0,220.0,-1413.0
1772222076.034594,37.0,220.0,-1409.0
1772222076.042594,37.0,221.0,-1404.0
1772222076.0366294,37.0,220.0,-1406.0
1772222076.0446293,36.0,220.0,-1410.0
1772222076.0594468,36.0,220.0,-1410.0
1772222076.0674467,36.0,220.0,-1404.0
1772222076.0614777,36.0,220.0,-1406.0
1772222076.0694776,36.0,220.0,-1412.0
1772222076.0622413,36.0,221.0,-1411.0
1772222076.0702412,37.0,220.0,-1406.0
1772222076.0653489,36.0,220.0,-1406.0
1772222076.0733488,36.0,220.0,-1411.0
1772222076.0782568,36.0,219.0,-1413.0
1772222076.0862567,35.0,219.0,-1407.0
1772222076.0815349,37.0,220.0,-1406.0
1772222076.0895348,37.0,220.0,-1411.0
1772222076.1065524,36.0,220.0,-1410.0
1772222076.1145523,36.0,220.0,-1406.0
1772222076.1081111,37.0,220.0,-1403.0
1772222076.116111,37.0,220.0,-1409.0
1772222076.1249685,36.0,219.0,-1412.0
1772222076.1329684,36.0,220.0,-1406.0
1772222076.1266553,37.0,221.0,-1403.0
1772222076.1346552,37.0,221.0,-1407.0
1772222076.151705,37.0,221.0,-1411.0
1772222076.159705,37.0,221.0,-1407.0
1772222076.1573663,37.0,221.0,-1402.0
1772222076.1653662,37.0,221.0,-1404.0
1772222076.1573663,38.0,222.0,-1408.0
1772222076.1653662,39.0,222.0,-1407.0
1772222076.1693633,37.0,221.0,-1401.0
1772222076.1773632,37.0,222.0,-1402.0
1772222076.1693633,38.0,221.0,-1408.0
1772222076.1773632,37.0,221.0,-1408.0
1772222076.1703694,37.0,221.0,-1403.0
1772222076.1783693,37.0,221.0,-1402.0
1772222076.1716645,37.0,221.0,-1408.0
1772222076.1796644,37.0,221.0,-1408.0
1772222076.1778288,37.0,221.0,-1402.0
1772222076.1858287,37.0,220.0,-1401.0
1772222076.1971853,37.0,220.0,-1407.0
1772222076.2051852,37.0,220.0,-1408.0
1772222076.2027051,38.0,221.0,-1404.0
1772222076.210705,37.0,221.0,-1401.0
1772222076.2027051,38.0,222.0,-1406.0
1772222076.210705,37.0,221.0,-1410.0
1772222076.2201324,37.0,220.0,-1406.0
1772222076.2281322,37.0,221.0,-1403.0
1772222076.2205243,37.0,220.0,-1407.0
1772222076.2285242,38.0,220.0,-1410.0
1772222076.2492294,38.0,221.0,-1406.0
1772222076.2572293,37.0,221.0,-1403.0
1772222076.2570124,37.0,222.0,-1406.0
1772222076.2650123,37.0,222.0,-1411.0
1772222076.260522,37.0,220.0,-1408.0
1772222076.2685218,37.0,220.0,-1404.0
1772222076.2612054,36.0,220.0,-1404.0
1772222076.2692053,36.0,220.0,-1409.0
1772222076.262809,37.0,220.0,-1409.0
1772222076.270809,38.0,221.0,-1404.0
1772222076.2654412,37.0,221.0,-1407.0
1772222076.273441,37.0,221.0,-1412.0
1772222076.2925844,37.0,221.0,-1411.0
1772222076.3005843,36.0,219.0,-1406.0
1772222076.295961,36.0,219.0,-1404.0
1772222076.3039608,36.0,219.0,-1409.0
1772222076.2975962,37.0,219.0,-1411.0
1772222076.305596,37.0,220.0,-1406.0
1772222076.3047488,37.0,221.0,-1403.0
1772222076.3127487,37.0,221.0,-1407.0
1772222076.3440876,38.0,221.0,-1410.0
1772222076.3520875,37.0,220.0,-1406.0
1772222076.3496172,37.0,221.0,-1403.0
1772222076.3576171,37.0,220.0,-1406.0
1772222076.3496172,36.0,220.0,-1410.0
1772222076.3576171,37.0,220.0,-1407.0
1772222076.3508844,36.0,220.0,-1401.0
1772222076.3588843,36.0,220.0,-1404.0
1772222076.3523018,37.0,220.0,-1408.0
1772222076.3603017,37.0,221.0,-1406.0
1772222076.370649,37.0,221.0,-1402.0
1772222076.378649,37.0,220.0,-1402.0
1772222076.370649,37.0,220.0,-1407.0
1772222076.378649,36.0,220.0,-1406.0
1772222076.3772762,37.0,220.0,-1399.0
1772222076.385276,38.0,221.0,-1399.0
1772222076.3779588,36.0,220.0,-1407.0
1772222076.3859587,37.0,220.0,-1406.0
1772222076.3795211,37.0,221.0,-1400.0
1772222076.387521,37.0,221.0,-1401.0
1772222076.406145,37.0,221.0,-1404.0
1772222076.414145,38.0,221.0,-1403.0
1772222076.406145,40.0,221.0,-1401.0
1772222076.414145,40.0,222.0,-1399.0
1772222076.4128785,39.0,222.0,-1404.0
1772222076.4208784,38.0,222.0,-1409.0
1772222076.4455118,38.0,222.0,-1406.0
1772222076.4535117,38.0,222.0,-1405.0
1772222076.446513,38.0,222.0,-1411.0
1772222076.4545128,37.0,222.0,-1414.0
1772222076.4519815,37.0,222.0,-1411.0
1772222076.4599814,38.0,222.0,-1406.0
1772222076.4519815,38.0,222.0,-1409.0
1772222076.4599814,38.0,222.0,-1413.0
1772222076.4532971,38.0,222.0,-1412.0
1772222076.461297,37.0,222.0,-1407.0
1772222076.4532971,37.0,222.0,-1406.0
1772222076.461297,37.0,221.0,-1411.0
1772222076.4738758,37.0,221.0,-1413.0
1772222076.4818757,38.0,222.0,-1407.0
1772222076.475421,38.0,222.0,-1407.0
1772222076.4834208,38.0,221.0,-1411.0
1772222076.5095146,37.0,220.0,-1412.0
1772222076.5175145,37.0,221.0,-1405.0
1772222076.5095146,38.0,221.0,-1403.0
1772222076.5175145,38.0,221.0,-1408.0
1772222076.5095146,38.0,221.0,-1411.0
1772222076.5175145,38.0,221.0,-1406.0
1772222076.5109386,38.0,221.0,-1404.0
1772222076.5189385,38.0,221.0,-1409.0
1772222076.512514,38.0,221.0,-1411.0
1772222076.520514,38.0,222.0,-1406.0
1772222076.5140398,39.0,223.0,-1402.0
1772222076.5220397,39.0,222.0,-1405.0
1772222076.5232015,38.0,222.0,-1411.0
1772222076.5312014,38.0,222.0,-1408.0
1772222076.5288334,38.0,222.0,-1403.0
1772222076.5368333,38.0,222.0,-1405.0
1772222076.5392246,39.0,222.0,-1409.0
1772222076.5472245,40.0,224.0,-1406.0
1772222076.55656,39.0,224.0,-1404.0
1772222076.56456,38.0,222.0,-1403.0
1772222076.55656,38.0,222.0,-1409.0
1772222076.56456,38.0,221.0,-1409.0
1772222076.562197,38.0,222.0,-1403.0
1772222076.5701969,38.0,222.0,-1403.0
1772222076.5699584,39.0,222.0,-1408.0
1772222076.5779583,39.0,222.0,-1409.0
1772222076.602884,39.0,223.0,-1404.0
1772222076.610884,38.0,223.0,-1403.0
1772222076.602884,39.0,223.0,-1408.0
1772222076.610884,40.0,223.0,-1411.0
1772222076.6178277,39.0,224.0,-1406.0
1772222076.6258276,39.0,223.0,-1402.0
1772222076.6193495,39.0,222.0,-1406.0
1772222076.6273494,38.0,222.0,-1409.0
1772222076.6224082,38.0,222.0,-1404.0
1772222076.630408,39.0,222.0,-1404.0
1772222076.6224082,39.0,222.0,-1409.0
1772222076.630408,38.0,221.0,-1411.0
1772222076.6247497,38.0,221.0,-1409.0
1772222076.6327496,38.0,222.0,-1404.0
1772222076.6468995,38.0,222.0,-1406.0
1772222076.6548994,38.0,222.0,-1412.0
1772222076.6468995,38.0,222.0,-1410.0
1772222076.6548994,38.0,223.0,-1405.0
1772222076.6499846,38.0,222.0,-1407.0
1772222076.6579845,38.0,221.0,-1412.0
1772222076.6566486,38.0,222.0,-1411.0
1772222076.6646485,38.0,221.0,-1405.0
1772222076.6658857,38.0,222.0,-1405.0
1772222076.6738856,38.0,221.0,-1411.0
1772222076.6750257,37.0,221.0,-1411.0
1772222076.6830256,38.0,221.0,-1406.0
1772222076.694092,37.0,221.0,-1405.0
1772222076.702092,37.0,221.0,-1409.0
1772222076.6953037,38.0,221.0,-1408.0
1772222076.7033036,38.0,222.0,-1403.0
1772222076.7151642,37.0,222.0,-1404.0
1772222076.723164,37.0,222.0,-1408.0
1772222076.7175465,39.0,222.0,-1411.0
1772222076.7255464,41.0,224.0,-1406.0
1772222076.741697,42.0,225.0,-1402.0
1772222076.749697,43.0,226.0,-1406.0
1772222076.741697,44.0,227.0,-1409.0
1772222076.749697,45.0,227.0,-1406.0
1772222076.7430298,45.0,228.0,-1399.0
1772222076.7510297,45.0,228.0,-1405.0
1772222076.7480485,45.0,228.0,-1409.0
1772222076.7560484,44.0,227.0,-1406.0
1772222076.7480485,44.0,228.0,-1401.0
1772222076.7560484,43.0,227.0,-1402.0
1772222076.7543676,43.0,227.0,-1407.0
1772222076.7623675,44.0,227.0,-1407.0
1772222076.7622538,44.0,227.0,-1403.0
1772222076.7702537,44.0,227.0,-1402.0
1772222076.7919033,45.0,226.0,-1408.0
1772222076.7999032,44.0,227.0,-1407.0
1772222076.7922473,44.0,227.0,-1402.0
1772222076.8002472,44.0,228.0,-1400.0
1772222076.802796,44.0,228.0,-1406.0
1772222076.8107958,43.0,227.0,-1408.0
1772222076.802796,43.0,227.0,-1405.0
1772222076.8107958,43.0,227.0,-1403.0
1772222076.8053823,43.0,226.0,-1409.0
1772222076.8133821,43.0,227.0,-1411.0
1772222076.8088005,43.0,227.0,-1407.0
1772222076.8168004,43.0,227.0,-1403.0
1772222076.8336837,43.0,226.0,-1407.0
1772222076.8416836,43.0,227.0,-1410.0
1772222076.8352225,43.0,226.0,-1408.0
1772222076.8432224,42.0,226.0,-1404.0
1772222076.849291,42.0,226.0,-1406.0
1772222076.857291,42.0,226.0,-1410.0
1772222076.8509462,42.0,226.0,-1409.0
1772222076.858946,42.0,225.0,-1402.0
1772222076.8539782,43.0,225.0,-1405.0
1772222076.861978,43.0,225.0,-1410.0
1772222076.8602717,43.0,225.0,-1409.0
1772222076.8682716,42.0,226.0,-1404.0
1772222076.868519,42.0,226.0,-1404.0
1772222076.876519,41.0,226.0,-1409.0
1772222076.9039214,41.0,226.0,-1411.0
1772222076.9119213,42.0,226.0,-1405.0
1772222076.9097366,42.0,227.0,-1404.0
1772222076.9177365,42.0,226.0,-1408.0
1772222076.9114265,42.0,225.0,-1410.0
1772222076.9194264,42.0,225.0,-1404.0
1772222076.9124355,43.0,226.0,-1401.0
1772222076.9204354,42.0,226.0,-1406.0
1772222076.9131215,42.0,226.0,-1409.0
1772222076.9211214,43.0,226.0,-1403.0
1772222076.928069,43.0,226.0,-1399.0
1772222076.936069,43.0,226.0,-1401.0
1772222076.9300673,44.0,228.0,-1405.0
1772222076.9380672,42.0,227.0,-1402.0
1772222076.9510326,42.0,226.0,-1398.0
1772222076.9590325,43.0,226.0,-1400.0
1772222076.9510326,45.0,228.0,-1403.0
1772222076.9590325,47.0,229.0,-1402.0
1772222076.9780383,47.0,228.0,-1396.0
1772222076.9860382,48.0,229.0,-1397.0
1772222076.9950752,49.0,231.0,-1402.0
1772222077.0030751,49.0,232.0,-1402.0
1772222076.9950752,48.0,232.0,-1398.0
1772222077.0030751,49.0,233.0,-1400.0
1772222076.9960716,48.0,233.0,-1409.0
1772222077.0040715,47.0,233.0,-1409.0
1772222076.996591,47.0,234.0,-1404.0
1772222077.004591,47.0,234.0,-1402.0
1772222076.9974427,45.0,234.0,-1408.0
1772222077.0054426,44.0,234.0,-1409.0
1772222077.0172014,44.0,234.0,-1406.0
1772222077.0252013,44.0,235.0,-1404.0
1772222077.019361,45.0,236.0,-1408.0
1772222077.027361,45.0,236.0,-1408.0
1772222077.025462,44.0,235.0,-1403.0
1772222077.0334618,44.0,235.0,-1404.0
1772222077.030858,44.0,236.0,-1407.0
1772222077.038858,44.0,236.0,-1410.0
1772222077.0324786,43.0,236.0,-1408.0
1772222077.0404785,43.0,235.0,-1404.0
1772222077.0324786,42.0,235.0,-1406.0
1772222077.0404785,42.0,235.0,-1410.0
1772222077.0422237,42.0,236.0,-1408.0
1772222077.0502236,42.0,236.0,-1403.0
1772222077.0826197,43.0,236.0,-1402.0
1772222077.0906196,43.0,235.0,-1409.0
1772222077.0826197,43.0,235.0,-1408.0
1772222077.0906196,42.0,235.0,-1403.0
1772222077.116799,42.0,235.0,-1402.0
1772222077.124799,42.0,235.0,-1407.0
1772222077.1289363,42.0,235.0,-1406.0
1772222077.1369362,43.0,236.0,-1400.0
1772222077.1309698,44.0,236.0,-1400.0
1772222077.1389697,43.0,235.0,-1405.0
1772222077.1324844,43.0,235.0,-1406.0
1772222077.1404843,43.0,235.0,-1402.0
1772222077.1592424,43.0,235.0,-1400.0
1772222077.1672423,43.0,236.0,-1404.0
1772222077.1592424,42.0,236.0,-1407.0
1772222077.1672423,42.0,236.0,-1402.0
1772222077.1592424,43.0,236.0,-1398.0
1772222077.1672423,43.0,235.0,-1403.0
1772222077.1602485,42.0,235.0,-1408.0
1772222077.1682484,42.0,236.0,-1405.0
1772222077.1608233,42.0,236.0,-1400.0
1772222077.1688232,42.0,235.0,-1403.0
1772222077.162273,42.0,235.0,-1406.0
1772222077.1702728,42.0,236.0,-1405.0
1772222077.162273,43.0,236.0,-1398.0
1772222077.1702728,43.0,236.0,-1402.0
1772222077.162273,42.0,236.0,-1407.0
1772222077.1702728,42.0,236.0,-1404.0
1772222077.1640306,43.0,237.0,-1399.0
1772222077.1720304,43.0,236.0,-1401.0
1772222077.1890447,43.0,235.0,-1407.0
1772222077.1970446,43.0,235.0,-1408.0
1772222077.1987822,43.0,236.0,-1403.0
1772222077.206782,43.0,235.0,-1400.0
1772222077.2123332,43.0,236.0,-1406.0
1772222077.220333,43.0,236.0,-1407.0
1772222077.2123332,44.0,236.0,-1402.0
1772222077.220333,44.0,237.0,-1399.0
1772222077.2200165,43.0,236.0,-1403.0
1772222077.2280164,43.0,236.0,-1409.0
1772222077.221025,43.0,236.0,-1406.0
1772222077.229025,43.0,236.0,-1402.0
1772222077.2214105,43.0,236.0,-1403.0
1772222077.2294104,44.0,237.0,-1407.0
1772222077.2260396,44.0,237.0,-1407.0
1772222077.2340395,45.0,237.0,-1401.0
1772222077.2321787,45.0,237.0,-1405.0
1772222077.2401786,43.0,236.0,-1408.0
1772222077.2560601,44.0,237.0,-1405.0
1772222077.26406,44.0,237.0,-1397.0
1772222077.2560601,44.0,237.0,-1401.0
1772222077.26406,44.0,237.0,-1405.0
1772222077.2578726,44.0,237.0,-1403.0
1772222077.2658725,44.0,238.0,-1396.0
1772222077.2659018,45.0,237.0,-1396.0
1772222077.2739017,44.0,236.0,-1401.0
1772222077.2725518,44.0,237.0,-1399.0
1772222077.2805517,44.0,237.0,-1392.0
1772222077.282906,44.0,237.0,-1392.0
1772222077.290906,43.0,236.0,-1397.0
1772222077.3080838,44.0,237.0,-1398.0
1772222077.3160837,44.0,237.0,-1392.0
1772222077.319002,44.0,237.0,-1389.0
1772222077.3270018,43.0,236.0,-1393.0
1772222077.3200083,43.0,236.0,-1395.0
1772222077.3280082,43.0,236.0,-1392.0
1772222077.3204358,44.0,236.0,-1389.0
1772222077.3284357,43.0,236.0,-1392.0
1772222077.321958,43.0,236.0,-1395.0
1772222077.329958,43.0,236.0,-1394.0
1772222077.3424923,44.0,237.0,-1389.0
1772222077.3504922,44.0,237.0,-1391.0
1772222077.3500588,44.0,237.0,-1398.0
1772222077.3580587,42.0,236.0,-1396.0
1772222077.3632123,42.0,235.0,-1390.0
1772222077.3712122,43.0,235.0,-1392.0
1772222077.3632123,43.0,235.0,-1399.0
1772222077.3712122,42.0,236.0,-1399.0
1772222077.3652472,43.0,237.0,-1394.0
1772222077.3732471,43.0,237.0,-1395.0
1772222077.369439,43.0,237.0,-1400.0
1772222077.3774388,43.0,237.0,-1401.0
1772222077.3788059,43.0,236.0,-1397.0
1772222077.3868058,43.0,236.0,-1398.0
1772222077.3969264,44.0,236.0,-1403.0
1772222077.4049263,44.0,237.0,-1404.0
1772222077.398587,44.0,237.0,-1400.0
1772222077.406587,43.0,237.0,-1398.0
1772222077.418369,43.0,236.0,-1404.0
1772222077.426369,43.0,235.0,-1407.0
1772222077.4207747,43.0,236.0,-1402.0
1772222077.4287746,43.0,236.0,-1399.0
1772222077.4443119,42.0,235.0,-1406.0
1772222077.4523118,43.0,235.0,-1410.0
1772222077.445917,43.0,236.0,-1406.0
1772222077.4539168,42.0,236.0,-1403.0
1772222077.4474523,42.0,236.0,-1405.0
1772222077.4554522,43.0,236.0,-1410.0
1772222077.4491923,43.0,236.0,-1407.0
1772222077.4571922,43.0,236.0,-1402.0
1772222077.4507205,43.0,236.0,-1403.0
1772222077.4587204,43.0,236.0,-1408.0
1772222077.4599073,43.0,235.0,-1404.0
1772222077.4679072,42.0,235.0,-1400.0
1772222077.4655526,42.0,235.0,-1401.0
1772222077.4735525,42.0,235.0,-1406.0
1772222077.4885728,42.0,235.0,-1405.0
1772222077.4965727,43.0,236.0,-1400.0
1772222077.4900784,43.0,236.0,-1399.0
1772222077.4980783,43.0,235.0,-1404.0
1772222077.4900784,43.0,236.0,-1404.0
1772222077.4980783,43.0,235.0,-1398.0
1772222077.4962182,44.0,235.0,-1394.0
1772222077.504218,44.0,236.0,-1399.0
1772222077.5049872,45.0,236.0,-1400.0
1772222077.5129871,45.0,236.0,-1395.0
1772222077.5149965,44.0,235.0,-1392.0
1772222077.5229964,43.0,236.0,-1395.0
1772222077.5473473,43.0,236.0,-1400.0
1772222077.5553472,43.0,236.0,-1398.0
1772222077.5484786,44.0,236.0,-1394.0
1772222077.5564785,43.0,236.0,-1399.0
1772222077.5750356,43.0,235.0,-1405.0
1772222077.5830355,43.0,236.0,-1402.0
1772222077.582309,43.0,235.0,-1399.0
1772222077.590309,43.0,235.0,-1401.0
1772222077.5838344,42.0,235.0,-1405.0
1772222077.5918343,42.0,235.0,-1403.0
1772222077.5838344,42.0,235.0,-1397.0
1772222077.5918343,42.0,235.0,-1400.0
1772222077.5848546,43.0,235.0,-1404.0
1772222077.5928545,44.0,235.0,-1404.0
1772222077.5854099,44.0,236.0,-1399.0
1772222077.5934098,43.0,236.0,-1398.0
1772222077.5868862,43.0,235.0,-1403.0
1772222077.594886,43.0,235.0,-1405.0
1772222077.5932865,43.0,236.0,-1401.0
1772222077.6012864,42.0,235.0,-1401.0
1772222077.6022625,42.0,236.0,-1406.0
1772222077.6102624,43.0,236.0,-1407.0
1772222077.6114414,43.0,236.0,-1403.0
1772222077.6194413,42.0,235.0,-1401.0
1772222077.644258,43.0,235.0,-1405.0
1772222077.652258,43.0,235.0,-1408.0
1772222077.644258,42.0,235.0,-1403.0
1772222077.652258,42.0,235.0,-1401.0
1772222077.6559474,43.0,236.0,-1404.0
1772222077.6639473,43.0,235.0,-1407.0
1772222077.662311,43.0,235.0,-1403.0
1772222077.670311,43.0,235.0,-1399.0
1772222077.6728556,44.0,235.0,-1399.0
1772222077.6808555,43.0,235.0,-1402.0
1772222077.6745045,43.0,235.0,-1400.0
1772222077.6825044,43.0,235.0,-1396.0
1772222077.6745045,43.0,236.0,-1396.0
1772222077.6825044,42.0,235.0,-1400.0
1772222077.6760716,43.0,235.0,-1401.0
1772222077.6840715,43.0,234.0,-1396.0
1772222077.6822248,42.0,235.0,-1395.0
1772222077.6902246,42.0,234.0,-1398.0
1772222077.719961,42.0,234.0,-1400.0
1772222077.7279608,42.0,235.0,-1395.0
1772222077.719961,42.0,235.0,-1393.0
1772222077.7279608,42.0,235.0,-1398.0
1772222077.721991,42.0,235.0,-1401.0
1772222077.729991,42.0,235.0,-1396.0
1772222077.7227128,42.0,234.0,-1393.0
1772222077.7307127,42.0,234.0,-1397.0
1772222077.7227128,42.0,235.0,-1401.0
1772222077.7307127,42.0,235.0,-1397.0
1772222077.7304142,42.0,235.0,-1393.0
1772222077.738414,43.0,235.0,-1397.0
1772222077.740204,42.0,234.0,-1402.0
1772222077.748204,42.0,235.0,-1400.0
1772222077.7447937,43.0,237.0,-1395.0
1772222077.7527936,41.0,235.0,-1398.0
1772222077.7669816,39.0,233.0,-1403.0
1772222077.7749815,38.0,231.0,-1402.0
1772222077.779235,37.0,230.0,-1398.0
1772222077.7872348,36.0,229.0,-1398.0
1772222077.78086,34.0,227.0,-1402.0
1772222077.7888598,32.0,225.0,-1404.0
1772222077.789689,32.0,224.0,-1400.0
1772222077.797689,31.0,222.0,-1398.0
1772222077.791371,29.0,220.0,-1406.0
1772222077.799371,28.0,218.0,-1407.0
1772222077.8016746,27.0,217.0,-1401.0
1772222077.8096745,26.0,215.0,-1404.0
1772222077.8116353,25.0,213.0,-1407.0
1772222077.8196352,24.0,211.0,-1410.0
1772222077.8116353,24.0,210.0,-1407.0
1772222077.8196352,23.0,210.0,-1404.0
1772222077.8182473,23.0,209.0,-1407.0
1772222077.8262472,23.0,207.0,-1410.0
1772222077.8264627,22.0,206.0,-1408.0
1772222077.8344626,21.0,204.0,-1402.0
1772222077.832178,20.0,203.0,-1404.0
1772222077.840178,20.0,203.0,-1409.0
1772222077.853429,20.0,203.0,-1406.0
1772222077.861429,20.0,203.0,-1401.0
1772222077.859667,21.0,203.0,-1402.0
1772222077.867667,21.0,203.0,-1407.0
1772222077.859667,22.0,203.0,-1405.0
1772222077.867667,22.0,203.0,-1400.0
1772222077.8691714,22.0,203.0,-1399.0
1772222077.8771713,23.0,203.0,-1402.0
1772222077.873268,23.0,203.0,-1403.0
1772222077.8812678,23.0,204.0,-1397.0
1772222077.9083455,23.0,204.0,-1396.0
1772222077.9163454,23.0,204.0,-1400.0
1772222077.9083455,23.0,204.0,-1402.0
1772222077.9163454,23.0,204.0,-1396.0
1772222077.9152179,24.0,204.0,-1393.0
1772222077.9232178,24.0,204.0,-1397.0
1772222077.9152179,24.0,204.0,-1400.0
1772222077.9232178,24.0,204.0,-1396.0
1772222077.9152179,24.0,205.0,-1394.0
1772222077.9232178,24.0,204.0,-1398.0
1772222077.922188,24.0,204.0,-1401.0
1772222077.930188,24.0,205.0,-1396.0
1772222077.93014,24.0,205.0,-1395.0
1772222077.93814,24.0,204.0,-1399.0
1772222077.9468682,24.0,204.0,-1403.0
1772222077.954868,24.0,205.0,-1400.0
1772222077.9549444,24.0,205.0,-1396.0
1772222077.9629443,24.0,205.0,-1397.0
1772222077.9549444,24.0,205.0,-1403.0
1772222077.9629443,24.0,205.0,-1402.0
1772222077.9631662,24.0,205.0,-1397.0
1772222077.9711661,23.0,204.0,-1399.0
1772222077.970382,23.0,204.0,-1403.0
1772222077.9783819,23.0,204.0,-1406.0
1772222077.9780943,23.0,204.0,-1399.0
1772222077.9860942,23.0,204.0,-1399.0
1772222077.9934974,23.0,204.0,-1408.0
1772222078.0014973,23.0,204.0,-1409.0
1772222078.0125892,23.0,204.0,-1404.0
1772222078.020589,23.0,204.0,-1404.0
1772222078.013753,23.0,203.0,-1408.0
1772222078.0217528,23.0,203.0,-1412.0
1772222078.046435,22.0,204.0,-1407.0
1772222078.054435,22.0,204.0,-1404.0
1772222078.0465534,23.0,203.0,-1408.0
1772222078.0545533,23.0,203.0,-1410.0
1772222078.048066,23.0,203.0,-1406.0
1772222078.0560658,24.0,204.0,-1402.0
1772222078.048066,23.0,204.0,-1404.0
1772222078.0560658,24.0,203.0,-1407.0
1772222078.049075,23.0,204.0,-1404.0
1772222078.0570748,23.0,204.0,-1399.0
1772222078.0674417,23.0,203.0,-1399.0
1772222078.0754416,23.0,203.0,-1403.0
1772222078.068448,23.0,204.0,-1402.0
1772222078.076448,23.0,204.0,-1396.0
1772222078.068958,23.0,203.0,-1395.0
1772222078.076958,23.0,203.0,-1398.0
1772222078.0925457,24.0,203.0,-1396.0
1772222078.1005456,24.0,204.0,-1389.0
1772222078.0925457,25.0,205.0,-1387.0
1772222078.1005456,25.0,204.0,-1393.0
1772222078.0940697,25.0,204.0,-1395.0
1772222078.1020696,24.0,204.0,-1392.0
1772222078.0971434,24.0,204.0,-1392.0
1772222078.1051433,24.0,204.0,-1399.0
1772222078.1059358,24.0,204.0,-1402.0
1772222078.1139357,23.0,204.0,-1396.0
1772222078.1416934,23.0,204.0,-1394.0
1772222078.1496933,23.0,204.0,-1398.0
1772222078.1416934,23.0,203.0,-1402.0
1772222078.1496933,23.0,203.0,-1398.0
1772222078.1489358,23.0,203.0,-1394.0
1772222078.1569357,23.0,202.0,-1398.0
1772222078.1504543,23.0,203.0,-1402.0
1772222078.1584542,23.0,204.0,-1400.0
1772222078.153515,24.0,205.0,-1394.0
1772222078.161515,24.0,204.0,-1398.0
1772222078.153515,22.0,202.0,-1403.0
1772222078.161515,21.0,201.0,-1403.0
1772222078.1620681,22.0,201.0,-1397.0
1772222078.170068,23.0,201.0,-1397.0
1772222078.184082,22.0,200.0,-1403.0
1772222078.192082,22.0,199.0,-1404.0
1772222078.1856077,22.0,199.0,-1399.0
1772222078.1936076,21.0,199.0,-1399.0
1772222078.1856077,21.0,198.0,-1407.0
1772222078.1936076,20.0,197.0,-1407.0
1772222078.1977153,20.0,196.0,-1403.0
1772222078.2057152,20.0,197.0,-1400.0
1772222078.2003384,19.0,196.0,-1406.0
1772222078.2083383,19.0,196.0,-1410.0
1772222078.210145,18.0,196.0,-1405.0
1772222078.218145,18.0,196.0,-1402.0
1772222078.2338057,18.0,196.0,-1406.0
1772222078.2418056,17.0,195.0,-1408.0
1772222078.2396822,16.0,196.0,-1404.0
1772222078.247682,16.0,197.0,-1399.0
1772222078.257206,17.0,198.0,-1402.0
1772222078.2652059,17.0,198.0,-1404.0
1772222078.2598903,17.0,198.0,-1401.0
1772222078.2678902,18.0,198.0,-1396.0
1772222078.280224,17.0,198.0,-1398.0
1772222078.288224,17.0,197.0,-1401.0
1772222078.280224,17.0,198.0,-1400.0
1772222078.288224,17.0,198.0,-1395.0
1772222078.2861695,17.0,199.0,-1394.0
1772222078.2941694,17.0,199.0,-1398.0
1772222078.2861695,18.0,199.0,-1397.0
1772222078.2941694,18.0,200.0,-1393.0
1772222078.2875829,18.0,200.0,-1394.0
1772222078.2955828,18.0,200.0,-1397.0
1772222078.2891147,18.0,200.0,-1399.0
1772222078.2971146,19.0,200.0,-1395.0
1772222078.2982996,19.0,201.0,-1393.0
1772222078.3062994,19.0,201.0,-1397.0
1772222078.306771,19.0,201.0,-1399.0
1772222078.314771,20.0,201.0,-1397.0
1772222078.3279705,21.0,202.0,-1395.0
1772222078.3359704,20.0,202.0,-1399.0
1772222078.3352938,20.0,202.0,-1402.0
1772222078.3432937,20.0,202.0,-1399.0
1772222078.355107,20.0,202.0,-1396.0
1772222078.363107,21.0,203.0,-1399.0
1772222078.3736618,20.0,203.0,-1404.0
1772222078.3816617,21.0,203.0,-1402.0
1772222078.3816805,21.0,203.0,-1398.0
1772222078.3896804,20.0,202.0,-1399.0
1772222078.3832083,21.0,202.0,-1405.0
1772222078.3912082,20.0,203.0,-1405.0
1772222078.421727,20.0,203.0,-1400.0
1772222078.4297268,20.0,203.0,-1400.0
1772222078.422204,20.0,203.0,-1405.0
1772222078.430204,20.0,203.0,-1408.0
1772222078.4290524,21.0,204.0,-1403.0
1772222078.4370522,21.0,203.0,-1402.0
1772222078.4290524,21.0,203.0,-1406.0
1772222078.4370522,20.0,204.0,-1408.0
1772222078.430253,21.0,205.0,-1404.0
1772222078.438253,22.0,204.0,-1401.0
1772222078.430253,22.0,204.0,-1407.0
1772222078.438253,22.0,205.0,-1409.0
1772222078.430253,22.0,205.0,-1404.0
1772222078.438253,22.0,205.0,-1400.0
1772222078.430253,23.0,205.0,-1405.0
1772222078.438253,23.0,205.0,-1409.0
1772222078.431824,23.0,205.0,-1405.0
1772222078.4398239,23.0,206.0,-1401.0
1772222078.4332736,23.0,206.0,-1401.0
1772222078.4412735,22.0,206.0,-1405.0
1772222078.4432943,23.0,205.0,-1403.0
1772222078.4512942,24.0,206.0,-1397.0
1772222078.4603288,24.0,206.0,-1398.0
1772222078.4683287,23.0,204.0,-1403.0
1772222078.4664016,23.0,205.0,-1400.0
1772222078.4744015,22.0,206.0,-1395.0
1772222078.4926867,22.0,207.0,-1396.0
1772222078.5006866,23.0,204.0,-1399.0
1772222078.5035813,22.0,204.0,-1399.0
1772222078.5115812,20.0,204.0,-1393.0
1772222078.5135162,19.0,204.0,-1393.0
1772222078.521516,19.0,205.0,-1398.0
1772222078.5150414,19.0,204.0,-1399.0
1772222078.5230412,20.0,203.0,-1394.0
1772222078.5150414,20.0,203.0,-1392.0
1772222078.5230412,19.0,203.0,-1396.0
1772222078.5183651,18.0,202.0,-1398.0
1772222078.526365,20.0,202.0,-1395.0
1772222078.5203888,20.0,201.0,-1393.0
1772222078.5283887,20.0,202.0,-1396.0
1772222078.5207558,20.0,203.0,-1400.0
1772222078.5287557,19.0,203.0,-1396.0
1772222078.5284164,17.0,203.0,-1389.0
1772222078.5364163,16.0,201.0,-1396.0
1772222078.537267,17.0,202.0,-1404.0
1772222078.5452669,19.0,204.0,-1399.0
1772222078.5457284,19.0,202.0,-1396.0
1772222078.5537283,16.0,201.0,-1397.0
1772222078.5559464,16.0,200.0,-1403.0
1772222078.5639462,16.0,199.0,-1401.0
1772222078.5754194,17.0,201.0,-1397.0
1772222078.5834193,19.0,205.0,-1398.0
1772222078.5769372,18.0,201.0,-1403.0
1772222078.584937,17.0,205.0,-1403.0
1772222078.578469,20.0,205.0,-1397.0
1772222078.586469,20.0,200.0,-1396.0
1772222078.6202912,24.0,200.0,-1403.0
1772222078.6282911,25.0,206.0,-1404.0
1772222078.6202912,17.0,206.0,-1400.0
1772222078.6282911,13.0,200.0,-1398.0
1772222078.621813,16.0,204.0,-1402.0
1772222078.629813,19.0,205.0,-1403.0
1772222078.623343,18.0,202.0,-1398.0
1772222078.631343,16.0,198.0,-1396.0
1772222078.6248705,14.0,200.0,-1398.0
1772222078.6328704,19.0,199.0,-1400.0
1772222078.6264038,16.0,197.0,-1397.0
1772222078.6344037,10.0,193.0,-1393.0
1772222078.6346152,11.0,189.0,-1392.0
1772222078.642615,10.0,191.0,-1395.0
1772222078.641403,9.0,191.0,-1394.0
1772222078.6494029,13.0,189.0,-1388.0
1772222078.6512368,18.0,190.0,-1389.0
1772222078.6592367,5.0,188.0,-1394.0
1772222078.6575994,3.0,184.0,-1397.0
1772222078.6655993,1.0,184.0,-1394.0
1772222078.6907558,1.0,181.0,-1394.0
1772222078.6987557,-1.0,178.0,-1400.0
1772222078.6907558,-3.0,177.0,-1401.0
1772222078.6987557,-6.0,179.0,-1395.0
1772222078.7074387,-8.0,176.0,-1394.0
1772222078.7154386,-9.0,173.0,-1397.0
1772222078.7085505,-11.0,172.0,-1397.0
1772222078.7165504,-12.0,173.0,-1388.0
1772222078.7098644,-13.0,171.0,-1391.0
1772222078.7178643,-11.0,173.0,-1397.0
1772222078.7328308,-12.0,176.0,-1400.0
1772222078.7408307,-6.0,178.0,-1398.0
1772222078.7328308,-4.0,178.0,-1396.0
1772222078.7408307,-13.0,171.0,-1399.0
1772222078.7458673,-13.0,164.0,-1401.0
1772222078.7538671,-10.0,173.0,-1401.0
1772222078.7468727,-14.0,175.0,-1394.0
1772222078.7548726,-17.0,174.0,-1399.0
1772222078.7499008,-8.0,175.0,-1404.0
1772222078.7579007,-10.0,169.0,-1400.0
1772222078.7503932,-15.0,164.0,-1397.0
1772222078.758393,-11.0,168.0,-1396.0
1772222078.7713802,-16.0,168.0,-1398.0
1772222078.77938,-14.0,168.0,-1398.0
1772222078.7845306,-4.0,174.0,-1397.0
1772222078.7925305,-4.0,173.0,-1399.0
1772222078.7845306,-4.0,176.0,-1402.0
1772222078.7925305,-3.0,180.0,-1398.0
1772222078.7845306,-3.0,180.0,-1393.0
1772222078.7925305,-3.0,179.0,-1395.0
1772222078.786919,-2.0,177.0,-1401.0
1772222078.794919,2.0,177.0,-1402.0
1772222078.796155,5.0,177.0,-1396.0
1772222078.8041549,5.0,180.0,-1393.0
1772222078.800755,2.0,182.0,-1399.0
1772222078.808755,2.0,183.0,-1402.0
1772222078.8208349,6.0,184.0,-1396.0
1772222078.8288348,6.0,181.0,-1393.0
1772222078.8265676,6.0,178.0,-1397.0
1772222078.8345675,8.0,182.0,-1398.0
1772222078.8605273,7.0,183.0,-1397.0
1772222078.8685272,4.0,183.0,-1394.0
1772222078.8620532,4.0,187.0,-1397.0
1772222078.870053,6.0,184.0,-1402.0
1772222078.8620532,8.0,179.0,-1398.0
1772222078.870053,9.0,181.0,-1393.0
1772222078.8620532,7.0,184.0,-1395.0
1772222078.870053,5.0,185.0,-1401.0
1772222078.8630633,4.0,186.0,-1399.0
1772222078.8710632,8.0,185.0,-1395.0
1772222078.8650155,9.0,184.0,-1394.0
1772222078.8730154,10.0,186.0,-1400.0
1772222078.87448,11.0,186.0,-1402.0
1772222078.88248,12.0,188.0,-1397.0
1772222078.8827343,17.0,190.0,-1396.0
1772222078.8907342,12.0,185.0,-1402.0
1772222078.8895802,4.0,185.0,-1402.0
1772222078.8975801,10.0,186.0,-1396.0
1772222078.9025846,13.0,184.0,-1395.0
1772222078.9105844,12.0,186.0,-1401.0
1772222078.9297214,15.0,186.0,-1407.0
1772222078.9377213,15.0,181.0,-1402.0
1772222078.937536,14.0,184.0,-1396.0
1772222078.945536,11.0,188.0,-1402.0
1772222078.937536,17.0,189.0,-1410.0
1772222078.945536,17.0,187.0,-1405.0
1772222078.937536,17.0,188.0,-1398.0
1772222078.945536,17.0,188.0,-1404.0
1772222078.9385374,14.0,180.0,-1409.0
1772222078.9465373,17.0,183.0,-1405.0
1772222078.964059,17.0,188.0,-1401.0
1772222078.972059,16.0,184.0,-1402.0
1772222078.964059,17.0,184.0,-1407.0
1772222078.972059,18.0,185.0,-1406.0
1772222078.965381,21.0,183.0,-1401.0
1772222078.9733808,8.0,176.0,-1400.0
1772222078.991423,7.0,184.0,-1405.0
1772222078.9994228,9.0,188.0,-1404.0
1772222079.0105424,17.0,185.0,-1398.0
1772222079.0185423,18.0,182.0,-1397.0
1772222079.0120757,15.0,180.0,-1401.0
1772222079.0200756,14.0,180.0,-1400.0
1772222079.0120757,14.0,185.0,-1396.0
1772222079.0200756,14.0,186.0,-1397.0
1772222079.0130827,13.0,185.0,-1398.0
1772222079.0210826,14.0,181.0,-1402.0
1772222079.0135298,12.0,184.0,-1402.0
1772222079.0215297,10.0,187.0,-1395.0
1772222079.0166194,16.0,184.0,-1399.0
1772222079.0246193,16.0,187.0,-1402.0
1772222079.025153,16.0,190.0,-1397.0
1772222079.0331528,15.0,186.0,-1393.0
1772222079.0349073,16.0,185.0,-1396.0
1772222079.0429072,18.0,190.0,-1400.0
1772222079.0572608,20.0,191.0,-1398.0
1772222079.0652606,18.0,192.0,-1394.0
1772222079.0592844,15.0,190.0,-1394.0
1772222079.0672843,18.0,191.0,-1400.0
1772222079.0790582,21.0,194.0,-1399.0
1772222079.087058,21.0,193.0,-1394.0
1772222079.0806162,19.0,192.0,-1394.0
1772222079.0886161,17.0,190.0,-1398.0
1772222079.0998209,19.0,192.0,-1391.0
1772222079.1078207,21.0,194.0,-1374.0
1772222079.1056535,21.0,195.0,-1371.0
1772222079.1136534,22.0,195.0,-1371.0
1772222079.1056535,20.0,194.0,-1373.0
1772222079.1136534,18.0,194.0,-1366.0
1772222079.1076767,20.0,194.0,-1358.0
1772222079.1156766,21.0,192.0,-1361.0
1772222079.1083608,19.0,190.0,-1373.0
1772222079.1163607,20.0,192.0,-1380.0
1772222079.114526,21.0,196.0,-1383.0
1772222079.122526,20.0,193.0,-1385.0
1772222079.1221783,23.0,194.0,-1387.0
1772222079.1301782,23.0,196.0,-1385.0
1772222079.1306305,22.0,196.0,-1385.0
1772222079.1386304,23.0,193.0,-1392.0
1772222079.1545653,23.0,193.0,-1394.0
1772222079.1625652,21.0,194.0,-1390.0
1772222079.1545653,20.0,197.0,-1393.0
1772222079.1625652,21.0,197.0,-1395.0
1772222079.1622102,21.0,196.0,-1397.0
1772222079.1702101,19.0,195.0,-1397.0
1772222079.1622102,18.0,193.0,-1393.0
1772222079.1702101,19.0,191.0,-1391.0
1772222079.1688316,19.0,190.0,-1395.0
1772222079.1768315,15.0,190.0,-1395.0
1772222079.1972594,10.0,191.0,-1390.0
1772222079.2052593,9.0,189.0,-1388.0
1772222079.1972594,10.0,185.0,-1394.0
1772222079.2052593,11.0,184.0,-1397.0
1772222079.2080264,9.0,186.0,-1394.0
1772222079.2160263,7.0,188.0,-1389.0
1772222079.209789,6.0,183.0,-1393.0
1772222079.217789,4.0,181.0,-1393.0
1772222079.211904,7.0,182.0,-1387.0
1772222079.219904,9.0,184.0,-1386.0
1772222079.2176392,5.0,183.0,-1389.0
1772222079.225639,10.0,185.0,-1394.0
1772222079.2397091,9.0,187.0,-1390.0
1772222079.247709,6.0,186.0,-1386.0
1772222079.241711,9.0,187.0,-1390.0
1772222079.2497108,11.0,187.0,-1396.0
1772222079.241711,13.0,187.0,-1395.0
1772222079.2497108,16.0,189.0,-1390.0
1772222079.2490416,12.0,187.0,-1393.0
1772222079.2570415,13.0,188.0,-1397.0
1772222079.2573335,15.0,189.0,-1395.0
1772222079.2653334,15.0,189.0,-1390.0
1772222079.2666564,15.0,190.0,-1392.0
1772222079.2746563,16.0,189.0,-1398.0
1772222079.291984,15.0,190.0,-1398.0
1772222079.299984,18.0,190.0,-1391.0
1772222079.2940137,22.0,190.0,-1389.0
1772222079.3020136,19.0,195.0,-1394.0
1772222079.2947254,17.0,195.0,-1398.0
1772222079.3027253,19.0,193.0,-1395.0
1772222079.315543,18.0,193.0,-1394.0
1772222079.3235428,18.0,191.0,-1399.0
1772222079.3394501,21.0,197.0,-1401.0
1772222079.34745,22.0,190.0,-1401.0
1772222079.3394501,21.0,185.0,-1398.0
1772222079.34745,23.0,192.0,-1401.0
1772222079.3416033,20.0,191.0,-1404.0
1772222079.3496032,14.0,194.0,-1401.0
1772222079.3422961,16.0,195.0,-1397.0
1772222079.350296,16.0,191.0,-1401.0
1772222079.3435633,18.0,192.0,-1405.0
1772222079.3515632,19.0,193.0,-1402.0
1772222079.3476338,18.0,192.0,-1396.0
1772222079.3556337,17.0,194.0,-1400.0
1772222079.3543334,18.0,197.0,-1404.0
1772222079.3623333,23.0,196.0,-1402.0
1772222079.364775,27.0,198.0,-1398.0
1772222079.3727748,12.0,200.0,-1397.0
1772222079.381157,8.0,191.0,-1404.0
1772222079.3891568,12.0,191.0,-1404.0
1772222079.3896708,17.0,191.0,-1399.0
1772222079.3976707,24.0,197.0,-1397.0
1772222079.3896708,10.0,192.0,-1405.0
1772222079.3976707,1.0,184.0,-1407.0
1772222079.397398,3.0,183.0,-1404.0
1772222079.405398,2.0,184.0,-1400.0
1772222079.4197,7.0,186.0,-1406.0
1772222079.4276998,6.0,185.0,-1408.0
1772222079.4213288,4.0,189.0,-1403.0
1772222079.4293287,9.0,186.0,-1399.0
1772222079.4335527,12.0,188.0,-1402.0
1772222079.4415526,20.0,195.0,-1407.0
1772222079.4351575,25.0,204.0,-1406.0
1772222079.4431574,25.0,205.0,-1401.0
1772222079.4666324,35.0,211.0,-1404.0
1772222079.4746323,43.0,220.0,-1408.0
1772222079.4800737,49.0,222.0,-1404.0
1772222079.4880736,53.0,227.0,-1396.0
1772222079.4803731,57.0,231.0,-1399.0
1772222079.488373,65.0,238.0,-1405.0
1772222079.4803731,73.0,238.0,-1403.0
1772222079.488373,85.0,250.0,-1399.0
1772222079.4803731,91.0,258.0,-1403.0
1772222079.488373,95.0,257.0,-1408.0
1772222079.481372,101.0,260.0,-1406.0
1772222079.489372,108.0,262.0,-1403.0
1772222079.4834244,108.0,267.0,-1400.0
1772222079.4914243,110.0,269.0,-1408.0
1772222079.4964666,115.0,271.0,-1409.0
1772222079.5044665,120.0,269.0,-1404.0
1772222079.50118,121.0,272.0,-1401.0
1772222079.5091798,119.0,274.0,-1408.0
1772222079.506817,116.0,279.0,-1411.0
1772222079.514817,120.0,281.0,-1407.0
1772222079.5268462,124.0,276.0,-1406.0
1772222079.534846,119.0,268.0,-1410.0
1772222079.5380661,118.0,267.0,-1414.0
1772222079.546066,114.0,270.0,-1411.0
1772222079.5482764,107.0,275.0,-1407.0
1772222079.5562763,106.0,268.0,-1412.0
1772222079.5498059,108.0,260.0,-1417.0
1772222079.5578058,102.0,260.0,-1413.0
1772222079.5737202,100.0,258.0,-1407.0
1772222079.58172,96.0,258.0,-1408.0
1772222079.585055,92.0,256.0,-1414.0
1772222079.593055,94.0,249.0,-1414.0
1772222079.585055,95.0,252.0,-1408.0
1772222079.593055,89.0,250.0,-1414.0
1772222079.5863423,83.0,243.0,-1418.0
1772222079.5943422,82.0,246.0,-1415.0
1772222079.5863423,83.0,250.0,-1411.0
1772222079.5943422,78.0,244.0,-1410.0
1772222079.5878687,75.0,241.0,-1414.0
1772222079.5958686,77.0,242.0,-1412.0
1772222079.608505,75.0,240.0,-1408.0
1772222079.616505,71.0,235.0,-1408.0
1772222079.6158888,68.0,233.0,-1412.0
1772222079.6238887,67.0,239.0,-1413.0
1772222079.631324,67.0,238.0,-1407.0
1772222079.639324,59.0,232.0,-1403.0
1772222079.6330595,57.0,233.0,-1409.0
1772222079.6410594,59.0,229.0,-1412.0
1772222079.6789412,59.0,228.0,-1410.0
1772222079.6869411,57.0,229.0,-1407.0
1772222079.679258,55.0,229.0,-1409.0
1772222079.687258,50.0,229.0,-1413.0
1772222079.70795,45.0,226.0,-1411.0
1772222079.71595,45.0,223.0,-1408.0
1772222079.70795,46.0,225.0,-1410.0
1772222079.71595,44.0,223.0,-1414.0
1772222079.71704,45.0,224.0,-1415.0
1772222079.72504,43.0,222.0,-1413.0
1772222079.71704,41.0,218.0,-1413.0
1772222079.72504,40.0,215.0,-1420.0
1772222079.71704,41.0,215.0,-1419.0
1772222079.72504,39.0,217.0,-1417.0
1772222079.7185552,37.0,215.0,-1421.0
1772222079.726555,37.0,213.0,-1423.0
1772222079.7202363,34.0,215.0,-1419.0
1772222079.7282362,31.0,216.0,-1416.0
1772222079.7202363,31.0,217.0,-1421.0
1772222079.7282362,33.0,214.0,-1428.0
1772222079.7211368,33.0,212.0,-1428.0
1772222079.7291367,33.0,212.0,-1421.0
1772222079.7243705,30.0,212.0,-1417.0
1772222079.7323704,27.0,214.0,-1420.0
1772222079.7259085,29.0,214.0,-1424.0
1772222079.7339084,30.0,215.0,-1418.0
1772222079.7305217,30.0,214.0,-1412.0
1772222079.7385216,28.0,214.0,-1418.0
1772222079.7456307,30.0,214.0,-1421.0
1772222079.7536306,28.0,215.0,-1419.0
1772222079.7585955,29.0,212.0,-1413.0
1772222079.7665954,27.0,209.0,-1414.0
1772222079.765822,24.0,215.0,-1417.0
1772222079.7738218,24.0,214.0,-1414.0
1772222079.765822,29.0,213.0,-1411.0
1772222079.7738218,25.0,208.0,-1410.0
1772222079.8011415,20.0,206.0,-1415.0
1772222079.8091414,22.0,210.0,-1413.0
1772222079.8011415,20.0,214.0,-1408.0
1772222079.8091414,23.0,209.0,-1405.0
1772222079.805196,26.0,210.0,-1411.0
1772222079.813196,22.0,211.0,-1414.0
1772222079.8054767,18.0,206.0,-1411.0
1772222079.8134766,18.0,206.0,-1410.0
1772222079.8070617,18.0,203.0,-1414.0
1772222079.8150616,16.0,200.0,-1418.0
1772222079.8086016,16.0,202.0,-1415.0
1772222079.8166015,12.0,208.0,-1411.0
1772222079.8175936,10.0,202.0,-1411.0
1772222079.8255935,12.0,200.0,-1411.0
1772222079.8265479,12.0,201.0,-1407.0
1772222079.8345478,15.0,200.0,-1402.0
1772222079.8487685,13.0,197.0,-1408.0
1772222079.8567684,10.0,203.0,-1414.0
1772222079.8502734,15.0,206.0,-1411.0
1772222079.8582733,17.0,204.0,-1406.0
1772222079.8502734,18.0,203.0,-1406.0
1772222079.8582733,11.0,197.0,-1413.0
1772222079.8573918,9.0,195.0,-1412.0
1772222079.8653917,16.0,201.0,-1409.0
1772222079.8650908,14.0,206.0,-1409.0
1772222079.8730907,10.0,208.0,-1413.0
1772222079.8953588,11.0,207.0,-1411.0
1772222079.9033587,13.0,201.0,-1405.0
1772222079.8953588,16.0,199.0,-1403.0
1772222079.9033587,12.0,203.0,-1407.0
1772222079.9175084,11.0,203.0,-1409.0
1772222079.9255083,15.0,202.0,-1407.0
1772222079.9190314,14.0,207.0,-1406.0
1772222079.9270313,13.0,210.0,-1408.0
1772222079.9418998,14.0,206.0,-1408.0
1772222079.9498997,14.0,203.0,-1405.0
1772222079.9418998,15.0,204.0,-1401.0
1772222079.9498997,15.0,208.0,-1404.0
1772222079.9438434,14.0,206.0,-1406.0
1772222079.9518433,15.0,205.0,-1405.0
1772222079.9444826,15.0,204.0,-1403.0
1772222079.9524825,14.0,205.0,-1408.0
1772222079.9444826,14.0,206.0,-1412.0
1772222079.9524825,14.0,206.0,-1408.0
1772222079.9461122,15.0,207.0,-1406.0
1772222079.954112,17.0,208.0,-1409.0
1772222079.9523208,15.0,207.0,-1413.0
1772222079.9603207,14.0,208.0,-1411.0
1772222079.9613397,15.0,208.0,-1406.0
1772222079.9693396,16.0,207.0,-1407.0
1772222079.970602,16.0,206.0,-1412.0
1772222079.978602,15.0,206.0,-1415.0
1772222079.988821,16.0,207.0,-1412.0
1772222079.996821,18.0,207.0,-1412.0
1772222079.990362,19.0,208.0,-1416.0
1772222079.9983618,18.0,210.0,-1415.0
1772222079.9973226,17.0,210.0,-1409.0
1772222080.0053225,17.0,206.0,-1409.0
1772222080.0368438,19.0,206.0,-1414.0
1772222080.0448437,19.0,209.0,-1412.0
1772222080.0383692,19.0,210.0,-1407.0
1772222080.046369,18.0,209.0,-1404.0
1772222080.0383692,20.0,208.0,-1406.0
1772222080.046369,17.0,209.0,-1408.0
1772222080.0393782,15.0,208.0,-1406.0
1772222080.047378,14.0,207.0,-1404.0
1772222080.0411894,14.0,206.0,-1409.0
1772222080.0491893,14.0,205.0,-1412.0
1772222080.0411894,13.0,206.0,-1409.0
1772222080.0491893,14.0,204.0,-1404.0
1772222080.049419,14.0,201.0,-1408.0
1772222080.0574188,12.0,199.0,-1412.0
1772222080.0583284,13.0,200.0,-1410.0
1772222080.0663283,12.0,201.0,-1402.0
1772222080.0750787,12.0,201.0,-1405.0
1772222080.0830786,13.0,200.0,-1413.0
1772222080.082175,12.0,198.0,-1414.0
1772222080.090175,11.0,197.0,-1410.0
1772222080.082175,10.0,194.0,-1406.0
1772222080.090175,8.0,193.0,-1412.0
1772222080.0908654,10.0,197.0,-1415.0
1772222080.0988653,9.0,198.0,-1414.0
1772222080.0967472,8.0,195.0,-1410.0
1772222080.104747,8.0,194.0,-1413.0
1772222080.1051025,7.0,195.0,-1414.0
1772222080.1131024,9.0,196.0,-1410.0
1772222080.1293309,10.0,197.0,-1411.0
1772222080.1373308,8.0,193.0,-1415.0
1772222080.1408138,7.0,193.0,-1418.0
1772222080.1488137,7.0,193.0,-1414.0
1772222080.142453,7.0,195.0,-1410.0
1772222080.1504529,7.0,194.0,-1411.0
1772222080.1754556,8.0,196.0,-1416.0
1772222080.1834555,8.0,195.0,-1415.0
1772222080.1754556,8.0,195.0,-1411.0
1772222080.1834555,7.0,196.0,-1412.0
1772222080.176982,7.0,195.0,-1415.0
1772222080.1849818,7.0,195.0,-1415.0
1772222080.176982,7.0,196.0,-1409.0
1772222080.1849818,6.0,195.0,-1408.0
1772222080.1782131,6.0,195.0,-1412.0
1772222080.186213,7.0,194.0,-1411.0
1772222080.1782131,8.0,195.0,-1406.0
1772222080.186213,8.0,197.0,-1407.0
1772222080.1845405,8.0,196.0,-1412.0
1772222080.1925404,9.0,196.0,-1411.0
1772222080.194553,9.0,197.0,-1405.0
1772222080.2025528,8.0,198.0,-1404.0
1772222080.2224112,9.0,199.0,-1409.0
1772222080.230411,8.0,198.0,-1409.0
1772222080.2224112,8.0,199.0,-1406.0
1772222080.230411,9.0,197.0,-1404.0
1772222080.2224112,9.0,197.0,-1410.0
1772222080.230411,9.0,197.0,-1414.0
1772222080.224686,10.0,199.0,-1409.0
1772222080.2326858,10.0,200.0,-1404.0
1772222080.2340312,10.0,200.0,-1408.0
1772222080.242031,10.0,200.0,-1414.0
1772222080.2699034,11.0,200.0,-1412.0
1772222080.2779033,11.0,201.0,-1407.0
1772222080.2699034,12.0,201.0,-1408.0
1772222080.2779033,12.0,201.0,-1412.0
1772222080.2711565,13.0,202.0,-1410.0
1772222080.2791564,13.0,202.0,-1408.0
1772222080.289591,12.0,203.0,-1409.0
1772222080.297591,12.0,202.0,-1414.0
1772222080.3161445,13.0,202.0,-1415.0
1772222080.3241444,15.0,202.0,-1409.0
1772222080.3161445,13.0,203.0,-1410.0
1772222080.3241444,12.0,203.0,-1417.0
1772222080.3161445,12.0,204.0,-1418.0
1772222080.3241444,13.0,205.0,-1413.0
1772222080.3171432,14.0,205.0,-1410.0
1772222080.325143,14.0,205.0,-1416.0
1772222080.317652,15.0,206.0,-1421.0
1772222080.325652,15.0,206.0,-1417.0
1772222080.3192372,15.0,206.0,-1412.0
1772222080.3272371,15.0,205.0,-1420.0
1772222080.3223045,15.0,206.0,-1426.0
1772222080.3303044,16.0,206.0,-1418.0
1772222080.32999,17.0,206.0,-1411.0
1772222080.3379898,16.0,206.0,-1412.0
1772222080.3360991,17.0,207.0,-1415.0
1772222080.344099,18.0,208.0,-1413.0
1772222080.3452766,19.0,207.0,-1411.0
1772222080.3532765,19.0,207.0,-1411.0
1772222080.3702867,20.0,208.0,-1413.0
1772222080.3782866,20.0,208.0,-1410.0
1772222080.3718638,21.0,209.0,-1406.0
1772222080.3798637,22.0,210.0,-1406.0
1772222080.384137,23.0,210.0,-1411.0
1772222080.3921368,23.0,211.0,-1413.0
1772222080.3856578,22.0,211.0,-1410.0
1772222080.3936577,22.0,210.0,-1411.0
1772222080.387688,22.0,211.0,-1418.0
1772222080.3956878,24.0,212.0,-1423.0
1772222080.409824,25.0,213.0,-1416.0
1772222080.4178238,26.0,214.0,-1412.0
1772222080.409824,27.0,215.0,-1418.0
1772222080.4178238,28.0,216.0,-1417.0
1772222080.4124293,28.0,215.0,-1413.0
1772222080.4204292,27.0,214.0,-1412.0
1772222080.4182434,28.0,215.0,-1415.0
1772222080.4262433,29.0,216.0,-1416.0
1772222080.4262786,30.0,216.0,-1412.0
1772222080.4342785,30.0,217.0,-1407.0
1772222080.4330904,30.0,217.0,-1411.0
1772222080.4410903,31.0,218.0,-1415.0
1772222080.4563165,32.0,219.0,-1413.0
1772222080.4643164,31.0,218.0,-1408.0
1772222080.4583468,31.0,218.0,-1410.0
1772222080.4663467,32.0,218.0,-1417.0
1772222080.4590335,32.0,219.0,-1417.0
1772222080.4670334,33.0,219.0,-1412.0
1772222080.4651997,33.0,220.0,-1414.0
1772222080.4731996,33.0,221.0,-1419.0
1772222080.5026493,33.0,221.0,-1418.0
1772222080.5106492,33.0,220.0,-1412.0
1772222080.5026493,33.0,220.0,-1410.0
1772222080.5106492,34.0,221.0,-1418.0
1772222080.5123549,33.0,220.0,-1418.0
1772222080.5203547,33.0,220.0,-1412.0
1772222080.5174708,35.0,222.0,-1409.0
1772222080.5254707,35.0,222.0,-1413.0
1772222080.5174708,35.0,222.0,-1413.0
1772222080.5254707,35.0,222.0,-1411.0
1772222080.5189974,35.0,222.0,-1411.0
1772222080.5269973,34.0,222.0,-1417.0
1772222080.5220892,35.0,222.0,-1418.0
1772222080.5300891,35.0,223.0,-1414.0
1772222080.5306115,36.0,224.0,-1410.0
1772222080.5386114,37.0,223.0,-1415.0
1772222080.5505514,36.0,223.0,-1420.0
1772222080.5585513,37.0,224.0,-1416.0
1772222080.552078,36.0,223.0,-1411.0
1772222080.560078,36.0,223.0,-1415.0
1772222080.557382,36.0,223.0,-1420.0
1772222080.565382,36.0,224.0,-1417.0
1772222080.5608506,37.0,223.0,-1412.0
1772222080.5688505,37.0,224.0,-1412.0
1772222080.569009,37.0,225.0,-1415.0
1772222080.577009,37.0,224.0,-1414.0
1772222080.5892746,37.0,222.0,-1405.0
1772222080.5972745,36.0,221.0,-1409.0
1772222080.5963118,33.0,220.0,-1414.0
1772222080.6043117,34.0,220.0,-1414.0
1772222080.6160984,34.0,219.0,-1410.0
1772222080.6240983,32.0,219.0,-1411.0
1772222080.6160984,32.0,218.0,-1417.0
1772222080.6240983,32.0,219.0,-1420.0
1772222080.6186416,33.0,219.0,-1416.0
1772222080.6266415,33.0,219.0,-1415.0
1772222080.623384,33.0,219.0,-1419.0
1772222080.631384,33.0,219.0,-1422.0
1772222080.6321785,33.0,219.0,-1415.0
1772222080.6401784,33.0,220.0,-1411.0
1772222080.6434038,33.0,221.0,-1418.0
1772222080.6514037,33.0,220.0,-1420.0
1772222080.644922,35.0,221.0,-1417.0
1772222080.652922,35.0,221.0,-1411.0
1772222080.6495273,34.0,221.0,-1411.0
1772222080.6575272,33.0,220.0,-1418.0
1772222080.6585426,34.0,220.0,-1419.0
1772222080.6665425,33.0,220.0,-1413.0
1772222080.6662707,34.0,220.0,-1416.0
1772222080.6742706,35.0,221.0,-1421.0
1772222080.6739025,35.0,222.0,-1421.0
1772222080.6819024,35.0,222.0,-1417.0
1772222080.6908545,35.0,221.0,-1418.0
1772222080.6988544,34.0,220.0,-1425.0
1772222080.6923735,33.0,220.0,-1427.0
1772222080.7003734,33.0,220.0,-1422.0
1772222080.696978,35.0,220.0,-1421.0
1772222080.704978,35.0,220.0,-1426.0
1772222080.7052298,35.0,221.0,-1427.0
1772222080.7132297,35.0,221.0,-1422.0
1772222080.7382574,34.0,220.0,-1417.0
1772222080.7462573,34.0,220.0,-1420.0
1772222080.7382574,34.0,220.0,-1421.0
1772222080.7462573,34.0,220.0,-1415.0
1772222080.7488198,34.0,220.0,-1411.0
1772222080.7568197,34.0,221.0,-1418.0
1772222080.7503474,35.0,222.0,-1419.0
1772222080.7583473,35.0,221.0,-1416.0
1772222080.7534184,35.0,221.0,-1412.0
1772222080.7614183,33.0,222.0,-1414.0
1772222080.7534184,34.0,222.0,-1423.0
1772222080.7614183,35.0,222.0,-1419.0
1772222080.7671328,35.0,222.0,-1414.0
1772222080.7751327,35.0,222.0,-1415.0
1772222080.7771432,36.0,222.0,-1419.0
1772222080.7851431,36.0,221.0,-1420.0
1772222080.7887616,35.0,221.0,-1415.0
1772222080.7967615,34.0,220.0,-1413.0
1772222080.7902734,33.0,220.0,-1419.0
1772222080.7982733,34.0,220.0,-1419.0
1772222080.7933478,34.0,221.0,-1415.0
1772222080.8013477,34.0,222.0,-1413.0
1772222080.8008838,35.0,222.0,-1419.0
1772222080.8088837,34.0,221.0,-1420.0
1772222080.809055,34.0,220.0,-1415.0
1772222080.817055,34.0,220.0,-1411.0
1772222080.8328645,34.0,221.0,-1416.0
1772222080.8408644,34.0,221.0,-1420.0
1772222080.8353727,33.0,219.0,-1415.0
1772222080.8433726,33.0,220.0,-1415.0
1772222080.8524008,35.0,222.0,-1420.0
1772222080.8604007,34.0,220.0,-1423.0
1772222080.8539855,34.0,219.0,-1420.0
1772222080.8619854,33.0,218.0,-1417.0
1772222080.8781452,34.0,217.0,-1421.0
1772222080.886145,34.0,218.0,-1426.0
1772222080.8781452,34.0,217.0,-1426.0
1772222080.886145,34.0,217.0,-1421.0
1772222080.8781452,35.0,217.0,-1421.0
1772222080.886145,35.0,216.0,-1425.0
1772222080.8805952,34.0,216.0,-1426.0
1772222080.888595,35.0,214.0,-1423.0
1772222080.882124,34.0,212.0,-1422.0
1772222080.8901238,34.0,212.0,-1427.0
1772222080.9488986,35.0,212.0,-1427.0
1772222080.9568985,35.0,213.0,-1424.0
1772222080.949339,35.0,213.0,-1423.0
1772222080.9573388,34.0,213.0,-1429.0
1772222080.9736042,34.0,213.0,-1430.0
1772222080.981604,35.0,212.0,-1425.0
1772222080.9811316,34.0,212.0,-1422.0
1772222080.9891315,34.0,211.0,-1425.0
1772222080.9985669,34.0,212.0,-1427.0
1772222081.0065668,35.0,214.0,-1423.0
1772222081.0001307,35.0,213.0,-1419.0
1772222081.0081306,36.0,214.0,-1422.0
1772222081.0225627,36.0,215.0,-1426.0
1772222081.0305626,35.0,215.0,-1424.0
1772222081.0225627,34.0,213.0,-1422.0
1772222081.0305626,33.0,212.0,-1427.0
1772222081.0225627,33.0,212.0,-1432.0
1772222081.0305626,33.0,212.0,-1428.0
1772222081.0238729,34.0,213.0,-1419.0
1772222081.0318727,34.0,214.0,-1425.0
1772222081.0238729,33.0,213.0,-1432.0
1772222081.0318727,33.0,213.0,-1430.0
1772222081.0298846,33.0,213.0,-1424.0
1772222081.0378845,32.0,213.0,-1423.0
1772222081.0308862,32.0,213.0,-1428.0
1772222081.038886,33.0,213.0,-1427.0
1772222081.0313609,34.0,213.0,-1425.0
1772222081.0393608,33.0,214.0,-1423.0
1772222081.0313609,33.0,213.0,-1429.0
1772222081.0393608,32.0,213.0,-1431.0
1772222081.0313609,32.0,214.0,-1425.0
1772222081.0393608,33.0,215.0,-1423.0
1772222081.0333846,32.0,214.0,-1430.0
1772222081.0413845,33.0,215.0,-1432.0
1772222081.0415685,34.0,215.0,-1430.0
1772222081.0495684,35.0,215.0,-1427.0
1772222081.0419397,34.0,214.0,-1429.0
1772222081.0499396,32.0,214.0,-1434.0
1772222081.0435107,32.0,214.0,-1430.0
1772222081.0515106,32.0,214.0,-1425.0
1772222081.0694582,33.0,215.0,-1429.0
1772222081.0774581,34.0,215.0,-1432.0
1772222081.0780268,34.0,215.0,-1431.0
1772222081.0860267,34.0,215.0,-1427.0
1772222081.0780268,34.0,215.0,-1428.0
1772222081.0860267,34.0,215.0,-1434.0
1772222081.0780268,33.0,215.0,-1431.0
1772222081.0860267,32.0,214.0,-1427.0
1772222081.115134,33.0,216.0,-1428.0
1772222081.123134,33.0,216.0,-1433.0
1772222081.1154876,34.0,216.0,-1433.0
1772222081.1234875,34.0,216.0,-1429.0
1772222081.1170151,34.0,216.0,-1428.0
1772222081.125015,34.0,215.0,-1430.0
1772222081.1170151,33.0,215.0,-1431.0
1772222081.125015,34.0,215.0,-1430.0
1772222081.1180277,33.0,215.0,-1428.0
1772222081.1260276,33.0,215.0,-1431.0
1772222081.1209278,34.0,215.0,-1435.0
1772222081.1289277,34.0,216.0,-1429.0
1772222081.1311572,34.0,217.0,-1425.0
1772222081.139157,34.0,216.0,-1431.0
1772222081.137365,33.0,215.0,-1433.0
1772222081.145365,33.0,214.0,-1430.0
1772222081.1565998,33.0,215.0,-1426.0
1772222081.1645997,33.0,215.0,-1428.0
1772222081.1651385,34.0,215.0,-1433.0
1772222081.1731384,33.0,214.0,-1432.0
1772222081.1651385,33.0,215.0,-1429.0
1772222081.1731384,33.0,215.0,-1430.0
1772222081.1730766,33.0,214.0,-1437.0
1772222081.1810765,33.0,215.0,-1437.0
1772222081.1766524,33.0,215.0,-1430.0
1772222081.1846523,33.0,214.0,-1431.0
1772222081.2093813,33.0,215.0,-1435.0
1772222081.2173812,34.0,216.0,-1439.0
1772222081.2093813,35.0,216.0,-1434.0
1772222081.2173812,35.0,216.0,-1434.0
1772222081.2093813,34.0,215.0,-1440.0
1772222081.2173812,33.0,215.0,-1443.0
1772222081.2279236,33.0,216.0,-1441.0
1772222081.2359235,34.0,215.0,-1442.0
1772222081.2294953,34.0,215.0,-1444.0
1772222081.2374952,34.0,215.0,-1446.0
1772222081.2310445,33.0,216.0,-1443.0
1772222081.2390444,35.0,216.0,-1439.0
1772222081.2343385,35.0,216.0,-1443.0
1772222081.2423384,34.0,216.0,-1446.0
1772222081.25783,33.0,216.0,-1444.0
1772222081.2658298,34.0,216.0,-1439.0
1772222081.2669318,35.0,217.0,-1443.0
1772222081.2749317,33.0,216.0,-1446.0
1772222081.26739,33.0,216.0,-1443.0
1772222081.27539,34.0,216.0,-1439.0
1772222081.2688973,34.0,216.0,-1441.0
1772222081.2768972,34.0,216.0,-1445.0
1772222081.2735374,35.0,216.0,-1443.0
1772222081.2815373,35.0,216.0,-1439.0
1772222081.281458,34.0,216.0,-1440.0
1772222081.2894578,34.0,216.0,-1447.0
1772222081.2984428,34.0,216.0,-1448.0
1772222081.3064427,34.0,217.0,-1444.0
1772222081.3209953,34.0,217.0,-1443.0
1772222081.3289952,35.0,216.0,-1447.0
1772222081.3227558,34.0,216.0,-1448.0
1772222081.3307557,34.0,216.0,-1443.0
1772222081.3273644,34.0,216.0,-1443.0
1772222081.3353643,34.0,216.0,-1448.0
1772222081.3294423,34.0,215.0,-1450.0
1772222081.3374422,34.0,216.0,-1446.0
1772222081.3372915,34.0,217.0,-1443.0
1772222081.3452914,34.0,217.0,-1446.0
1772222081.3519838,35.0,217.0,-1449.0
1772222081.3599837,35.0,217.0,-1445.0
1772222081.3532276,35.0,217.0,-1441.0
1772222081.3612275,34.0,217.0,-1443.0
1772222081.3612614,33.0,216.0,-1445.0
1772222081.3692613,34.0,216.0,-1446.0
1772222081.3627737,35.0,217.0,-1441.0
1772222081.3707736,35.0,217.0,-1442.0
1772222081.37097,34.0,216.0,-1447.0
1772222081.37897,34.0,216.0,-1445.0
1772222081.3777473,36.0,217.0,-1443.0
1772222081.3857472,35.0,217.0,-1445.0
1772222081.3993564,34.0,216.0,-1450.0
1772222081.4073563,34.0,216.0,-1453.0
1772222081.4085026,33.0,216.0,-1447.0
1772222081.4165025,33.0,216.0,-1445.0
1772222081.4085026,34.0,216.0,-1453.0
1772222081.4165025,34.0,215.0,-1453.0
1772222081.409825,34.0,216.0,-1449.0
1772222081.417825,34.0,216.0,-1447.0
1772222081.4401693,34.0,216.0,-1452.0
1772222081.4481692,34.0,216.0,-1455.0
1772222081.4401693,34.0,217.0,-1451.0
1772222081.4481692,34.0,217.0,-1449.0
1772222081.4469807,34.0,216.0,-1453.0
1772222081.4549806,33.0,215.0,-1456.0
1772222081.4485729,33.0,215.0,-1452.0
1772222081.4565728,33.0,215.0,-1449.0
1772222081.4501448,34.0,216.0,-1452.0
1772222081.4581447,34.0,216.0,-1457.0
1772222081.4563415,34.0,216.0,-1456.0
1772222081.4643414,34.0,216.0,-1450.0
1772222081.4648566,34.0,216.0,-1455.0
1772222081.4728565,33.0,215.0,-1461.0
1772222081.4882975,32.0,215.0,-1460.0
1772222081.4962974,32.0,215.0,-1454.0
1772222081.4940724,33.0,215.0,-1454.0
1772222081.5020723,33.0,215.0,-1458.0
1772222081.4940724,34.0,217.0,-1460.0
1772222081.5020723,34.0,218.0,-1451.0
1772222081.500685,35.0,218.0,-1450.0
1772222081.5086849,35.0,217.0,-1455.0
1772222081.5053246,35.0,217.0,-1456.0
1772222081.5133245,35.0,217.0,-1455.0
1772222081.512545,33.0,216.0,-1454.0
1772222081.520545,33.0,216.0,-1460.0
1772222081.5322018,34.0,217.0,-1464.0
1772222081.5402017,33.0,217.0,-1459.0
1772222081.5508137,32.0,217.0,-1456.0
1772222081.5588136,32.0,216.0,-1459.0
1772222081.5523386,32.0,217.0,-1462.0
1772222081.5603385,33.0,216.0,-1462.0
1772222081.582052,34.0,216.0,-1456.0
1772222081.590052,34.0,216.0,-1458.0
1772222081.582052,33.0,215.0,-1464.0
1772222081.590052,34.0,216.0,-1462.0
1772222081.5909023,33.0,216.0,-1456.0
1772222081.5989022,33.0,215.0,-1458.0
1772222081.5927546,32.0,216.0,-1466.0
1772222081.6007545,33.0,216.0,-1464.0
1772222081.5958166,33.0,215.0,-1459.0
1772222081.6038165,33.0,215.0,-1460.0
1772222081.5973294,33.0,215.0,-1464.0
1772222081.6053293,34.0,216.0,-1464.0
1772222081.5979512,34.0,217.0,-1461.0
1772222081.605951,33.0,216.0,-1460.0
1772222081.601039,32.0,216.0,-1464.0
1772222081.6090388,32.0,215.0,-1465.0
1772222081.621291,33.0,217.0,-1464.0
1772222081.6292908,33.0,217.0,-1465.0
1772222081.6274722,33.0,217.0,-1469.0
1772222081.635472,32.0,216.0,-1472.0
1772222081.633318,33.0,216.0,-1468.0
1772222081.6413178,34.0,216.0,-1464.0
1772222081.634851,33.0,216.0,-1470.0
1772222081.6428509,33.0,215.0,-1473.0
1772222081.6415045,33.0,216.0,-1470.0
1772222081.6495044,33.0,217.0,-1465.0
1772222081.6502986,34.0,217.0,-1467.0
1772222081.6582985,33.0,216.0,-1471.0
1772222081.6802983,34.0,216.0,-1468.0
1772222081.6882982,33.0,216.0,-1463.0
1772222081.6802983,33.0,217.0,-1469.0
1772222081.6882982,33.0,217.0,-1474.0
1772222081.683473,34.0,218.0,-1471.0
1772222081.691473,34.0,218.0,-1469.0
1772222081.6849952,34.0,218.0,-1469.0
1772222081.692995,34.0,217.0,-1474.0
1772222081.6901882,34.0,217.0,-1474.0
1772222081.698188,34.0,217.0,-1471.0
1772222081.6973028,33.0,217.0,-1468.0
1772222081.7053027,33.0,217.0,-1476.0
1772222081.7234533,33.0,217.0,-1479.0
1772222081.7314532,33.0,216.0,-1473.0
1772222081.7296174,33.0,217.0,-1469.0
1772222081.7376173,32.0,217.0,-1473.0
1772222081.7296174,33.0,217.0,-1475.0
1772222081.7376173,32.0,217.0,-1469.0
1772222081.7296174,32.0,216.0,-1468.0
1772222081.7376173,32.0,215.0,-1473.0
1772222081.736794,32.0,216.0,-1475.0
1772222081.744794,32.0,216.0,-1470.0
1772222081.745411,33.0,216.0,-1468.0
1772222081.7534108,32.0,216.0,-1470.0
1772222081.769161,32.0,216.0,-1474.0
1772222081.777161,31.0,216.0,-1472.0
1772222081.7757282,31.0,216.0,-1468.0
1772222081.7837281,32.0,216.0,-1470.0
1772222081.7757282,32.0,216.0,-1475.0
1772222081.7837281,32.0,216.0,-1475.0
1772222081.7946224,32.0,216.0,-1471.0
1772222081.8026223,32.0,216.0,-1470.0
1772222081.797269,32.0,217.0,-1476.0
1772222081.805269,32.0,216.0,-1475.0
1772222081.8142173,32.0,216.0,-1469.0
1772222081.8222172,32.0,216.0,-1469.0
1772222081.8142173,32.0,216.0,-1474.0
1772222081.8222172,32.0,216.0,-1474.0
1772222081.8142173,32.0,216.0,-1469.0
1772222081.8222172,32.0,217.0,-1469.0
1772222081.818763,31.0,216.0,-1473.0
1772222081.826763,31.0,217.0,-1475.0
1772222081.824859,32.0,217.0,-1472.0
1772222081.8328588,33.0,217.0,-1470.0
1772222081.8325207,33.0,217.0,-1474.0
1772222081.8405206,33.0,218.0,-1477.0
1772222081.8423858,32.0,217.0,-1474.0
1772222081.8503857,32.0,216.0,-1470.0
1772222081.861831,32.0,216.0,-1474.0
1772222081.8698308,32.0,217.0,-1477.0
1772222081.8633597,32.0,217.0,-1474.0
1772222081.8713596,32.0,217.0,-1470.0
1772222081.8833416,32.0,217.0,-1471.0
1772222081.8913414,32.0,217.0,-1476.0
1772222081.8833416,32.0,217.0,-1478.0
1772222081.8913414,31.0,216.0,-1473.0
1772222081.8858824,31.0,216.0,-1472.0
1772222081.8938823,30.0,217.0,-1476.0
1772222081.889548,31.0,217.0,-1475.0
1772222081.897548,31.0,216.0,-1467.0
1772222081.914395,31.0,217.0,-1467.0
1772222081.922395,31.0,216.0,-1475.0
1772222081.9154716,31.0,216.0,-1476.0
1772222081.9234715,32.0,217.0,-1473.0
1772222081.9243755,32.0,216.0,-1470.0
1772222081.9323754,31.0,216.0,-1476.0
1772222081.925985,30.0,216.0,-1478.0
1772222081.933985,30.0,216.0,-1474.0
1772222081.9290454,31.0,217.0,-1471.0
1772222081.9370453,31.0,217.0,-1476.0
1772222081.9531124,32.0,216.0,-1478.0
1772222081.9611123,31.0,217.0,-1476.0
1772222081.9546354,30.0,217.0,-1473.0
1772222081.9626353,30.0,216.0,-1475.0
1772222081.9546354,31.0,216.0,-1480.0
1772222081.9626353,31.0,216.0,-1479.0
1772222081.962328,32.0,216.0,-1476.0
1772222081.9703279,31.0,216.0,-1476.0
1772222081.9684494,31.0,216.0,-1480.0
1772222081.9764493,30.0,216.0,-1478.0
1772222081.9830058,31.0,216.0,-1472.0
1772222081.9910057,30.0,216.0,-1473.0
1772222081.9978244,30.0,217.0,-1480.0
1772222082.0058243,31.0,216.0,-1479.0
1772222082.0045416,31.0,217.0,-1475.0
1772222082.0125415,31.0,216.0,-1473.0
1772222082.0045416,31.0,216.0,-1478.0
1772222082.0125415,30.0,217.0,-1479.0
1772222082.0467596,30.0,216.0,-1474.0
1772222082.0547595,31.0,216.0,-1474.0
1772222082.0478196,31.0,216.0,-1478.0
1772222082.0558195,31.0,216.0,-1480.0
1772222082.0493715,31.0,217.0,-1478.0
1772222082.0573714,31.0,217.0,-1473.0
1772222082.0493715,31.0,217.0,-1476.0
1772222082.0573714,31.0,217.0,-1479.0
1772222082.0518107,31.0,218.0,-1476.0
1772222082.0598106,32.0,218.0,-1471.0
1772222082.0534506,33.0,218.0,-1475.0
1772222082.0614505,32.0,218.0,-1480.0
1772222082.0562553,31.0,218.0,-1478.0
1772222082.0642552,32.0,217.0,-1474.0
1772222082.0656822,31.0,217.0,-1477.0
1772222082.073682,30.0,216.0,-1484.0
1772222082.0741954,30.0,217.0,-1483.0
1772222082.0821953,30.0,217.0,-1478.0
1772222082.0860362,30.0,217.0,-1479.0
1772222082.094036,30.0,216.0,-1483.0
1772222082.0974166,30.0,217.0,-1483.0
1772222082.1054165,30.0,217.0,-1478.0
1772222082.1040525,30.0,217.0,-1477.0
1772222082.1120524,30.0,216.0,-1481.0
1772222082.1060786,30.0,216.0,-1481.0
1772222082.1140785,30.0,216.0,-1477.0
1772222082.1122031,30.0,216.0,-1478.0
1772222082.120203,30.0,217.0,-1481.0
1772222082.1218925,31.0,218.0,-1484.0
1772222082.1298923,31.0,218.0,-1481.0
1772222082.1513238,30.0,217.0,-1478.0
1772222082.1593237,30.0,217.0,-1482.0
1772222082.152934,30.0,217.0,-1486.0
1772222082.160934,30.0,217.0,-1483.0
1772222082.1645503,31.0,218.0,-1479.0
1772222082.1725502,31.0,217.0,-1481.0
1772222082.1907592,30.0,217.0,-1485.0
1772222082.198759,30.0,217.0,-1482.0
1772222082.1907592,31.0,217.0,-1478.0
1772222082.198759,32.0,217.0,-1480.0
1772222082.2154875,32.0,218.0,-1487.0
1772222082.2234874,32.0,218.0,-1484.0
1772222082.2171013,31.0,219.0,-1477.0
1772222082.2251012,31.0,219.0,-1479.0
1772222082.2433512,31.0,219.0,-1484.0
1772222082.251351,32.0,219.0,-1484.0
1772222082.2433512,33.0,219.0,-1478.0
1772222082.251351,32.0,219.0,-1479.0
1772222082.2446043,32.0,218.0,-1483.0
1772222082.2526042,33.0,219.0,-1484.0
1772222082.2809327,33.0,219.0,-1482.0
1772222082.2889326,33.0,219.0,-1480.0
1772222082.2820363,32.0,219.0,-1486.0
1772222082.2900362,33.0,219.0,-1488.0
1772222082.2820363,33.0,220.0,-1480.0
1772222082.2900362,33.0,219.0,-1473.0
1772222082.284568,33.0,220.0,-1478.0
1772222082.292568,34.0,220.0,-1483.0
1772222082.284568,35.0,221.0,-1483.0
1772222082.292568,36.0,222.0,-1477.0
1772222082.284568,37.0,224.0,-1476.0
1772222082.292568,37.0,225.0,-1480.0
1772222082.2855957,40.0,224.0,-1482.0
1772222082.2935956,43.0,227.0,-1479.0
1772222082.2861254,46.0,231.0,-1480.0
1772222082.2941253,47.0,232.0,-1482.0
1772222082.2861254,56.0,235.0,-1479.0
1772222082.2941253,57.0,240.0,-1474.0
1772222082.2861254,61.0,243.0,-1476.0
1772222082.2941253,66.0,246.0,-1483.0
1772222082.2896748,71.0,252.0,-1482.0
1772222082.2976747,73.0,255.0,-1478.0
1772222082.2988734,78.0,258.0,-1477.0
1772222082.3068733,80.0,265.0,-1483.0
1772222082.3307042,82.0,265.0,-1482.0
1772222082.338704,87.0,271.0,-1476.0
1772222082.3307042,94.0,274.0,-1475.0
1772222082.338704,99.0,278.0,-1481.0
1772222082.3307042,104.0,281.0,-1482.0
1772222082.338704,109.0,283.0,-1479.0
1772222082.3374484,110.0,285.0,-1476.0
1772222082.3454483,114.0,286.0,-1479.0
1772222082.3374484,115.0,286.0,-1483.0
1772222082.3454483,116.0,287.0,-1482.0
1772222082.3448627,115.0,288.0,-1479.0
1772222082.3528626,114.0,286.0,-1479.0
1772222082.3536751,113.0,284.0,-1485.0
1772222082.361675,111.0,284.0,-1485.0
1772222082.3711886,109.0,281.0,-1483.0
1772222082.3791885,106.0,278.0,-1484.0
1772222082.3860419,103.0,274.0,-1487.0
1772222082.3940418,100.0,271.0,-1486.0
1772222082.3880832,99.0,271.0,-1482.0
1772222082.396083,96.0,269.0,-1483.0
1772222082.4218798,92.0,266.0,-1488.0
1772222082.4298797,90.0,265.0,-1487.0
1772222082.4218798,88.0,263.0,-1483.0
1772222082.4298797,85.0,261.0,-1482.0
1772222082.4231248,83.0,258.0,-1486.0
1772222082.4311247,81.0,257.0,-1490.0
1772222082.4247243,78.0,255.0,-1485.0
1772222082.4327242,74.0,252.0,-1482.0
1772222082.4247243,72.0,251.0,-1484.0
1772222082.4327242,69.0,249.0,-1486.0
1772222082.4257362,66.0,247.0,-1482.0
1772222082.433736,63.0,245.0,-1479.0
1772222082.4365597,62.0,244.0,-1483.0
1772222082.4445596,57.0,241.0,-1484.0
1772222082.4427946,54.0,239.0,-1482.0
1772222082.4507945,53.0,239.0,-1480.0
1772222082.4515033,50.0,237.0,-1481.0
1772222082.4595032,46.0,235.0,-1486.0
1772222082.4721797,44.0,234.0,-1485.0
1772222082.4801795,42.0,233.0,-1480.0
1772222082.4721797,38.0,231.0,-1480.0
1772222082.4801795,35.0,229.0,-1487.0
1772222082.478475,33.0,229.0,-1485.0
1772222082.486475,31.0,227.0,-1479.0
1772222082.5143044,29.0,225.0,-1479.0
1772222082.5223043,27.0,224.0,-1483.0
1772222082.5143044,24.0,222.0,-1483.0
1772222082.5223043,22.0,221.0,-1479.0
1772222082.5310342,20.0,219.0,-1477.0
1772222082.5390341,17.0,217.0,-1481.0
1772222082.5326223,16.0,215.0,-1482.0
1772222082.5406222,14.0,213.0,-1476.0
1772222082.5341477,11.0,213.0,-1476.0
1772222082.5421476,10.0,212.0,-1480.0
1772222082.5356658,9.0,210.0,-1483.0
1772222082.5436656,8.0,210.0,-1483.0
1772222082.5373056,6.0,208.0,-1482.0
1772222082.5453055,5.0,207.0,-1487.0
1772222082.5415473,5.0,205.0,-1489.0
1772222082.5495472,4.0,204.0,-1486.0
1772222082.5524194,2.0,203.0,-1480.0
1772222082.5604193,2.0,203.0,-1484.0
1772222082.562506,2.0,202.0,-1489.0
1772222082.5705059,3.0,203.0,-1487.0
1772222082.5640783,4.0,204.0,-1481.0
1772222082.5720782,4.0,203.0,-1482.0
1772222082.5860827,5.0,204.0,-1486.0
1772222082.5940826,6.0,204.0,-1485.0
1772222082.5873454,9.0,205.0,-1479.0
1772222082.5953453,12.0,208.0,-1480.0
1772222082.5890012,16.0,210.0,-1483.0
1772222082.597001,21.0,216.0,-1480.0
1772222082.6099677,29.0,221.0,-1475.0
1772222082.6179676,36.0,228.0,-1473.0
1772222082.6259253,39.0,230.0,-1478.0
1772222082.6339252,46.0,236.0,-1486.0
1772222082.6274924,53.0,244.0,-1482.0
1772222082.6354923,61.0,250.0,-1482.0
1772222082.634332,67.0,257.0,-1487.0
1772222082.6423318,72.0,265.0,-1491.0
1772222082.6359348,78.0,269.0,-1486.0
1772222082.6439347,83.0,272.0,-1484.0
1772222082.6462653,86.0,275.0,-1488.0
1772222082.6542652,86.0,275.0,-1487.0
1772222082.6577878,89.0,278.0,-1485.0
1772222082.6657877,89.0,280.0,-1479.0
1772222082.6577878,93.0,282.0,-1480.0
1772222082.6657877,93.0,282.0,-1487.0
1772222082.6641285,94.0,282.0,-1483.0
1772222082.6721284,95.0,288.0,-1475.0
1772222082.6656947,95.0,286.0,-1480.0
1772222082.6736946,97.0,283.0,-1485.0
1772222082.6748784,98.0,286.0,-1483.0
1772222082.6828783,102.0,286.0,-1476.0
1772222082.6812658,98.0,286.0,-1477.0
1772222082.6892657,91.0,284.0,-1481.0
1772222082.7031116,92.0,287.0,-1485.0
1772222082.7111115,93.0,287.0,-1479.0
1772222082.7031116,93.0,287.0,-1478.0
1772222082.7111115,98.0,292.0,-1482.0
1772222082.705139,97.0,289.0,-1484.0
1772222082.7131388,97.0,283.0,-1478.0
1772222082.7138176,95.0,284.0,-1477.0
1772222082.7218175,99.0,287.0,-1481.0
1772222082.7526526,95.0,287.0,-1484.0
1772222082.7606525,92.0,285.0,-1479.0
1772222082.7526526,95.0,285.0,-1477.0
1772222082.7606525,94.0,287.0,-1480.0
1772222082.7614288,94.0,286.0,-1481.0
1772222082.7694287,95.0,283.0,-1479.0
1772222082.7629805,93.0,284.0,-1475.0
1772222082.7709804,92.0,287.0,-1478.0
1772222082.766055,91.0,285.0,-1481.0
1772222082.774055,92.0,281.0,-1481.0
1772222082.766055,87.0,281.0,-1476.0
1772222082.774055,87.0,282.0,-1478.0
1772222082.7696066,83.0,280.0,-1483.0
1772222082.7776065,79.0,276.0,-1481.0
1772222082.7768834,75.0,276.0,-1474.0
1772222082.7848833,73.0,271.0,-1481.0
1772222082.7957325,72.0,266.0,-1485.0
1772222082.8037324,71.0,264.0,-1482.0
1772222082.7972598,63.0,261.0,-1480.0
1772222082.8052597,58.0,257.0,-1479.0
1772222082.8018646,56.0,254.0,-1484.0
1772222082.8098645,54.0,252.0,-1485.0
1772222082.8377514,52.0,247.0,-1480.0
1772222082.8457513,50.0,241.0,-1476.0
1772222082.843127,42.0,237.0,-1484.0
1772222082.851127,36.0,237.0,-1487.0
1772222082.858635,34.0,236.0,-1483.0
1772222082.8666348,33.0,231.0,-1481.0
1772222082.8602262,31.0,226.0,-1484.0
1772222082.868226,26.0,223.0,-1486.0
1772222082.8888092,23.0,218.0,-1482.0
1772222082.896809,19.0,217.0,-1477.0
1772222082.8888092,16.0,214.0,-1483.0
1772222082.896809,13.0,212.0,-1488.0
1772222082.8913357,11.0,208.0,-1486.0
1772222082.8993356,8.0,206.0,-1482.0
1772222082.8913357,4.0,204.0,-1483.0
1772222082.8993356,5.0,201.0,-1486.0
1772222082.8929105,1.0,203.0,-1481.0
1772222082.9009104,3.0,202.0,-1476.0
1772222082.8929105,0.0,200.0,-1475.0
1772222082.9009104,-1.0,197.0,-1479.0
1772222082.8939235,-2.0,195.0,-1477.0
1772222082.9019234,-3.0,195.0,-1473.0
1772222082.897982,-3.0,195.0,-1468.0
1772222082.9059818,-5.0,194.0,-1473.0
1772222082.9077442,-8.0,191.0,-1476.0
1772222082.915744,-7.0,192.0,-1475.0
1772222082.9129393,-9.0,192.0,-1476.0
1772222082.9209392,-11.0,189.0,-1482.0
1772222082.9359632,-9.0,188.0,-1485.0
1772222082.943963,-8.0,187.0,-1479.0
1772222082.937212,-7.0,186.0,-1475.0
1772222082.945212,-8.0,191.0,-1479.0
1772222082.937212,-16.0,188.0,-1483.0
1772222082.945212,-15.0,187.0,-1481.0
1772222082.945703,-10.0,188.0,-1475.0
1772222082.953703,-11.0,184.0,-1477.0
1772222082.9538429,-13.0,182.0,-1480.0
1772222082.9618428,-17.0,178.0,-1479.0
1772222082.983087,-14.0,182.0,-1477.0
1772222082.991087,-14.0,188.0,-1478.0
1772222082.984651,-16.0,188.0,-1481.0
1772222082.992651,-15.0,184.0,-1480.0
1772222082.9938886,-13.0,179.0,-1475.0
1772222083.0018885,-15.0,187.0,-1476.0
1772222082.9954455,-15.0,183.0,-1481.0
1772222083.0034454,-16.0,178.0,-1479.0
1772222082.9969926,-20.0,179.0,-1477.0
1772222083.0049925,-15.0,182.0,-1479.0
1772222083.0012214,-18.0,183.0,-1483.0
1772222083.0092213,-15.0,182.0,-1483.0
1772222083.010547,-18.0,182.0,-1478.0
1772222083.0185468,-21.0,180.0,-1476.0
1772222083.0333161,-14.0,180.0,-1480.0
1772222083.041316,-9.0,182.0,-1481.0
1772222083.040242,-14.0,186.0,-1477.0
1772222083.0482419,-20.0,179.0,-1475.0
1772222083.040242,-20.0,180.0,-1480.0
1772222083.0482419,-17.0,182.0,-1481.0
1772222083.045429,-18.0,183.0,-1475.0
1772222083.053429,-20.0,180.0,-1473.0
1772222083.0494642,-20.0,179.0,-1479.0
1772222083.0574641,-22.0,179.0,-1481.0
1772222083.0577059,-23.0,178.0,-1478.0
1772222083.0657058,-24.0,178.0,-1476.0
1772222083.0783615,-24.0,180.0,-1479.0
1772222083.0863614,-22.0,180.0,-1483.0
1772222083.0910404,-21.0,176.0,-1483.0
1772222083.0990403,-23.0,177.0,-1477.0
1772222083.092633,-22.0,180.0,-1479.0
1772222083.100633,-31.0,183.0,-1485.0
1772222083.1250288,-24.0,182.0,-1483.0
1772222083.1330287,-23.0,178.0,-1478.0
1772222083.1319122,-25.0,183.0,-1477.0
1772222083.1399121,-20.0,185.0,-1481.0
1772222083.1319122,-22.0,176.0,-1481.0
1772222083.1399121,-15.0,171.0,-1476.0
1772222083.132923,-16.0,172.0,-1475.0
1772222083.1409228,-25.0,177.0,-1480.0
1772222083.1334665,-27.0,198.0,-1483.0
1772222083.1414664,-20.0,192.0,-1478.0
1772222083.1334665,-19.0,173.0,-1477.0
1772222083.1414664,-26.0,179.0,-1481.0
1772222083.1372688,-26.0,185.0,-1484.0
1772222083.1452687,-17.0,185.0,-1477.0
1772222083.167794,-24.0,175.0,-1468.0
1772222083.175794,-31.0,173.0,-1474.0
1772222083.167794,-26.0,173.0,-1479.0
1772222083.175794,-22.0,176.0,-1481.0
1772222083.1698084,-23.0,175.0,-1477.0
1772222083.1778083,-19.0,176.0,-1481.0
1772222083.1705015,-16.0,178.0,-1486.0
1772222083.1785014,-21.0,172.0,-1486.0
1772222083.176521,-24.0,172.0,-1480.0
1772222083.184521,-26.0,178.0,-1477.0
1772222083.1851048,-22.0,176.0,-1485.0
1772222083.1931047,-25.0,171.0,-1483.0
1772222083.2280262,-26.0,177.0,-1479.0
1772222083.236026,-28.0,174.0,-1476.0
1772222083.233647,-30.0,171.0,-1480.0
1772222083.241647,-28.0,168.0,-1482.0
1772222083.239028,-25.0,170.0,-1476.0
1772222083.2470279,-22.0,178.0,-1474.0
1772222083.239028,-22.0,180.0,-1478.0
1772222083.2470279,-24.0,179.0,-1479.0
1772222083.2402196,-23.0,173.0,-1475.0
1772222083.2482195,-22.0,170.0,-1473.0
1772222083.2402196,-22.0,174.0,-1477.0
1772222083.2482195,-28.0,172.0,-1479.0
1772222083.2418258,-26.0,171.0,-1475.0
1772222083.2498257,-20.0,173.0,-1472.0
1772222083.261603,-17.0,176.0,-1478.0
1772222083.269603,-20.0,175.0,-1480.0
1772222083.263125,-18.0,180.0,-1478.0
1772222083.2711248,-16.0,180.0,-1474.0
1772222083.2662218,-15.0,180.0,-1476.0
1772222083.2742217,-13.0,185.0,-1484.0
1772222083.281797,-12.0,187.0,-1480.0
1772222083.2897968,-11.0,186.0,-1473.0
1772222083.281797,-9.0,188.0,-1475.0
1772222083.2897968,-6.0,190.0,-1480.0
1772222083.2889278,-5.0,191.0,-1479.0
1772222083.2969277,-5.0,194.0,-1471.0
1772222083.309384,-4.0,197.0,-1470.0
1772222083.317384,-3.0,196.0,-1476.0
1772222083.3109436,-3.0,197.0,-1477.0
1772222083.3189435,-1.0,198.0,-1474.0
1772222083.3309426,-2.0,195.0,-1471.0
1772222083.3389425,-3.0,196.0,-1474.0
1772222083.333576,-1.0,196.0,-1479.0
1772222083.3415759,-1.0,196.0,-1473.0
1772222083.3498824,-3.0,197.0,-1468.0
1772222083.3578823,-1.0,199.0,-1473.0
1772222083.355919,-2.0,201.0,-1476.0
1772222083.3639188,-3.0,198.0,-1472.0
1772222083.3572857,0.0,198.0,-1467.0
1772222083.3652856,2.0,200.0,-1471.0
1772222083.3572857,2.0,200.0,-1476.0
1772222083.3652856,0.0,200.0,-1472.0
1772222083.3613029,2.0,200.0,-1464.0
1772222083.3693027,2.0,200.0,-1465.0
1772222083.3710022,0.0,198.0,-1473.0
1772222083.379002,0.0,199.0,-1470.0
1772222083.3771787,0.0,200.0,-1464.0
1772222083.3851786,1.0,200.0,-1465.0
1772222083.3933964,2.0,200.0,-1470.0
1772222083.4013963,1.0,199.0,-1468.0
1772222083.403607,0.0,199.0,-1461.0
1772222083.4116068,-1.0,201.0,-1463.0
1772222083.403607,0.0,200.0,-1468.0
1772222083.4116068,0.0,197.0,-1469.0
1772222083.408646,2.0,198.0,-1464.0
1772222083.416646,2.0,198.0,-1462.0
1772222083.4196723,-1.0,198.0,-1466.0
1772222083.4276721,-1.0,199.0,-1468.0
1772222083.4508586,-1.0,200.0,-1464.0
1772222083.4588585,1.0,200.0,-1461.0
1772222083.4508586,1.0,200.0,-1465.0
1772222083.4588585,0.0,198.0,-1470.0
1772222083.4508586,1.0,199.0,-1467.0
1772222083.4588585,-1.0,199.0,-1461.0
1772222083.4735734,-1.0,201.0,-1464.0
1772222083.4815733,0.0,201.0,-1468.0
1772222083.4751563,1.0,200.0,-1464.0
1772222083.4831562,1.0,201.0,-1463.0
1772222083.503517,1.0,200.0,-1464.0
1772222083.5115168,1.0,201.0,-1470.0
1772222083.5052378,1.0,201.0,-1467.0
1772222083.5132377,0.0,200.0,-1461.0
1772222083.522761,-1.0,200.0,-1463.0
1772222083.530761,0.0,200.0,-1468.0
1772222083.5243032,2.0,201.0,-1469.0
1772222083.532303,1.0,201.0,-1464.0
1772222083.526686,1.0,200.0,-1461.0
1772222083.5346859,1.0,200.0,-1469.0
1772222083.5282536,1.0,202.0,-1469.0
1772222083.5362535,1.0,202.0,-1464.0
1772222083.5305674,0.0,201.0,-1463.0
1772222083.5385673,0.0,199.0,-1466.0
1772222083.5308545,1.0,199.0,-1469.0
1772222083.5388544,1.0,200.0,-1467.0
1772222083.5324206,2.0,200.0,-1463.0
1772222083.5404205,1.0,201.0,-1467.0
1772222083.5378082,1.0,201.0,-1468.0
1772222083.545808,0.0,201.0,-1466.0
1772222083.5651515,1.0,200.0,-1464.0
1772222083.5731514,1.0,201.0,-1469.0
1772222083.5666983,2.0,202.0,-1472.0
1772222083.5746982,1.0,201.0,-1469.0
1772222083.576046,2.0,200.0,-1463.0
1772222083.584046,1.0,201.0,-1465.0
1772222083.5776289,2.0,201.0,-1471.0
1772222083.5856287,1.0,203.0,-1472.0
1772222083.5802166,2.0,203.0,-1465.0
1772222083.5882165,3.0,203.0,-1466.0
1772222083.5887578,2.0,202.0,-1473.0
1772222083.5967577,3.0,202.0,-1470.0
1772222083.60601,4.0,203.0,-1465.0
1772222083.6140099,2.0,202.0,-1468.0
1772222083.6281087,1.0,202.0,-1474.0
1772222083.6361086,2.0,202.0,-1474.0
1772222083.6288922,3.0,201.0,-1468.0
1772222083.636892,2.0,201.0,-1467.0
1772222083.6288922,2.0,202.0,-1471.0
1772222083.636892,3.0,204.0,-1474.0
1772222083.6507368,3.0,205.0,-1471.0
1772222083.6587367,3.0,203.0,-1467.0
1772222083.6507368,1.0,202.0,-1471.0
1772222083.6587367,2.0,202.0,-1474.0
1772222083.6522665,3.0,202.0,-1473.0
1772222083.6602664,2.0,201.0,-1468.0
1772222083.6522665,2.0,202.0,-1469.0
1772222083.6602664,2.0,202.0,-1475.0
1772222083.6568193,2.0,202.0,-1475.0
1772222083.6648192,2.0,203.0,-1469.0
1772222083.69876,3.0,203.0,-1469.0
1772222083.70676,3.0,203.0,-1476.0
1772222083.6997612,2.0,203.0,-1476.0
1772222083.707761,2.0,203.0,-1469.0
1772222083.7083707,3.0,203.0,-1469.0
1772222083.7163706,2.0,202.0,-1473.0
1772222083.7099247,2.0,203.0,-1473.0
1772222083.7179246,1.0,203.0,-1468.0
1772222083.7129958,2.0,205.0,-1467.0
1772222083.7209957,3.0,203.0,-1474.0
1772222083.7145236,3.0,202.0,-1472.0
1772222083.7225235,3.0,203.0,-1466.0
1772222083.7172222,4.0,203.0,-1464.0
1772222083.725222,4.0,203.0,-1467.0
1772222083.7223878,4.0,204.0,-1467.0
1772222083.7303877,4.0,205.0,-1464.0
1772222083.7299938,4.0,205.0,-1461.0
1772222083.7379937,4.0,203.0,-1467.0
1772222083.7367785,3.0,202.0,-1473.0
1772222083.7447784,2.0,203.0,-1470.0
1772222083.7611187,2.0,204.0,-1467.0
1772222083.7691185,2.0,204.0,-1468.0
1772222083.7625303,2.0,204.0,-1474.0
1772222083.7705302,2.0,204.0,-1469.0
1772222083.7625303,2.0,202.0,-1465.0
1772222083.7705302,0.0,202.0,-1467.0
1772222083.77018,1.0,203.0,-1471.0
1772222083.77818,2.0,203.0,-1470.0
1772222083.7927372,3.0,203.0,-1465.0
1772222083.8007371,2.0,204.0,-1464.0
1772222083.805222,2.0,204.0,-1472.0
1772222083.813222,2.0,203.0,-1471.0
1772222083.805222,3.0,204.0,-1464.0
1772222083.813222,4.0,205.0,-1462.0
1772222083.8387227,2.0,203.0,-1467.0
1772222083.8467226,2.0,202.0,-1472.0
1772222083.8387227,3.0,202.0,-1465.0
1772222083.8467226,4.0,203.0,-1463.0
1772222083.8387227,2.0,203.0,-1466.0
1772222083.8467226,1.0,204.0,-1469.0
1772222083.839722,1.0,203.0,-1464.0
1772222083.8477218,2.0,203.0,-1461.0
1772222083.8417633,2.0,203.0,-1465.0
1772222083.8497632,1.0,202.0,-1467.0
1772222083.8417633,1.0,202.0,-1465.0
1772222083.8497632,2.0,202.0,-1461.0
1772222083.848709,3.0,202.0,-1465.0
1772222083.856709,2.0,202.0,-1467.0
1772222083.8584669,2.0,202.0,-1465.0
1772222083.8664668,2.0,203.0,-1461.0
1772222083.866155,2.0,202.0,-1464.0
1772222083.8741548,2.0,202.0,-1468.0
1772222083.8723824,2.0,202.0,-1466.0
1772222083.8803823,2.0,202.0,-1461.0
1772222083.8810098,1.0,202.0,-1462.0
1772222083.8890097,1.0,202.0,-1467.0
1772222083.9023457,2.0,202.0,-1466.0
1772222083.9103456,2.0,203.0,-1461.0
1772222083.903851,2.0,203.0,-1462.0
1772222083.911851,2.0,203.0,-1467.0
1772222083.937222,2.0,203.0,-1468.0
1772222083.945222,2.0,202.0,-1464.0
1772222083.947124,2.0,202.0,-1463.0
1772222083.955124,2.0,202.0,-1467.0
1772222083.947124,3.0,203.0,-1470.0
1772222083.955124,4.0,203.0,-1466.0
1772222083.948353,3.0,204.0,-1463.0
1772222083.956353,3.0,205.0,-1467.0
1772222083.948353,2.0,205.0,-1471.0
1772222083.956353,2.0,205.0,-1466.0
1772222083.9500053,2.0,204.0,-1462.0
1772222083.9580052,3.0,204.0,-1467.0
1772222083.9538956,4.0,203.0,-1472.0
1772222083.9618955,3.0,202.0,-1468.0
1772222083.9629364,3.0,203.0,-1465.0
1772222083.9709363,2.0,205.0,-1467.0
1772222083.9689019,3.0,204.0,-1470.0
1772222083.9769018,3.0,204.0,-1469.0
1772222083.9922764,2.0,204.0,-1464.0
1772222084.0002763,2.0,203.0,-1465.0
1772222083.9942763,1.0,201.0,-1470.0
1772222084.0022762,1.0,202.0,-1470.0
1772222084.0112996,2.0,203.0,-1464.0
1772222084.0192995,3.0,204.0,-1462.0
1772222084.0123088,3.0,204.0,-1469.0
1772222084.0203087,0.0,204.0,-1470.0
1772222084.0154982,0.0,204.0,-1466.0
1772222084.023498,1.0,206.0,-1465.0
1772222084.0401826,0.0,206.0,-1470.0
1772222084.0481825,0.0,205.0,-1471.0
1772222084.0422058,3.0,205.0,-1467.0
1772222084.0502057,4.0,207.0,-1464.0
1772222084.0514684,5.0,209.0,-1471.0
1772222084.0594683,7.0,211.0,-1473.0
1772222084.053317,8.0,212.0,-1469.0
1772222084.061317,9.0,214.0,-1464.0
1772222084.0550592,10.0,216.0,-1468.0
1772222084.063059,10.0,216.0,-1471.0
1772222084.0566485,12.0,217.0,-1471.0
1772222084.0646484,11.0,218.0,-1467.0
1772222084.066437,10.0,216.0,-1466.0
1772222084.074437,10.0,220.0,-1473.0
1772222084.087075,10.0,222.0,-1473.0
1772222084.095075,9.0,222.0,-1466.0
1772222084.0884717,8.0,220.0,-1467.0
1772222084.0964715,8.0,220.0,-1470.0
1772222084.115459,8.0,219.0,-1471.0
1772222084.1234589,6.0,219.0,-1467.0
1772222084.116652,3.0,217.0,-1465.0
1772222084.124652,2.0,217.0,-1472.0
1772222084.134725,2.0,217.0,-1472.0
1772222084.142725,2.0,217.0,-1466.0
1772222084.1351542,2.0,217.0,-1465.0
1772222084.1431541,-1.0,218.0,-1470.0
1772222084.1351542,-1.0,217.0,-1471.0
1772222084.1431541,-2.0,216.0,-1465.0
1772222084.1366808,-4.0,214.0,-1462.0
1772222084.1446807,-5.0,212.0,-1467.0
1772222084.1596746,-5.0,209.0,-1470.0
1772222084.1676745,-6.0,210.0,-1469.0
1772222084.1699047,-6.0,208.0,-1464.0
1772222084.1779046,-7.0,206.0,-1468.0
1772222084.1810057,-8.0,204.0,-1469.0
1772222084.1890056,-8.0,203.0,-1467.0
1772222084.1810057,-8.0,203.0,-1461.0
1772222084.1890056,-9.0,202.0,-1465.0
1772222084.1822236,-9.0,200.0,-1471.0
1772222084.1902235,-9.0,198.0,-1467.0
1772222084.1877491,-10.0,199.0,-1463.0
1772222084.195749,-11.0,198.0,-1462.0
1772222084.1877491,-10.0,197.0,-1468.0
1772222084.195749,-10.0,195.0,-1469.0
1772222084.1923254,-10.0,196.0,-1463.0
1772222084.2003253,-7.0,198.0,-1462.0
1772222084.2015176,-8.0,198.0,-1468.0
1772222084.2095175,-9.0,200.0,-1468.0
1772222084.220638,-9.0,200.0,-1463.0
1772222084.228638,-7.0,199.0,-1463.0
1772222084.225193,-10.0,197.0,-1467.0
1772222084.233193,-7.0,195.0,-1468.0
1772222084.229813,-4.0,197.0,-1465.0
1772222084.237813,-4.0,200.0,-1461.0
1772222084.2328668,-8.0,201.0,-1466.0
1772222084.2408667,-8.0,202.0,-1469.0
1772222084.2425923,-2.0,210.0,-1465.0
1772222084.2505922,4.0,213.0,-1461.0
1772222084.2503066,5.0,213.0,-1465.0
1772222084.2583065,4.0,213.0,-1467.0
1772222084.2793021,6.0,208.0,-1465.0
1772222084.287302,6.0,213.0,-1460.0
1772222084.2797873,6.0,222.0,-1467.0
1772222084.2877872,10.0,219.0,-1471.0
1772222084.2864323,9.0,212.0,-1468.0
1772222084.2944322,10.0,210.0,-1463.0
1772222084.2864323,15.0,214.0,-1463.0
1772222084.2944322,20.0,218.0,-1467.0
1772222084.28961,17.0,221.0,-1465.0
1772222084.2976098,19.0,222.0,-1460.0
1772222084.297999,27.0,219.0,-1458.0
1772222084.3059988,30.0,222.0,-1463.0
1772222084.3149626,14.0,218.0,-1466.0
1772222084.3229625,12.0,219.0,-1462.0
1772222084.3206296,16.0,217.0,-1464.0
1772222084.3286295,17.0,207.0,-1472.0
1772222084.3258345,20.0,208.0,-1473.0
1772222084.3338344,7.0,218.0,-1468.0
1772222084.330815,2.0,219.0,-1466.0
1772222084.338815,2.0,206.0,-1469.0
1772222084.3369446,7.0,205.0,-1471.0
1772222084.3449445,5.0,202.0,-1467.0
1772222084.3453548,4.0,208.0,-1464.0
1772222084.3533547,8.0,210.0,-1468.0
1772222084.3647752,9.0,206.0,-1472.0
1772222084.372775,8.0,207.0,-1468.0
1772222084.3663034,10.0,210.0,-1464.0
1772222084.3743033,11.0,209.0,-1465.0
1772222084.369385,15.0,211.0,-1469.0
1772222084.377385,14.0,212.0,-1466.0
1772222084.3960383,15.0,210.0,-1464.0
1772222084.4040382,13.0,210.0,-1464.0
1772222084.41183,9.0,211.0,-1469.0
1772222084.4198298,14.0,214.0,-1468.0
1772222084.4132812,19.0,217.0,-1465.0
1772222084.421281,16.0,214.0,-1464.0
1772222084.4140165,15.0,213.0,-1469.0
1772222084.4220164,14.0,212.0,-1468.0
1772222084.4140165,12.0,211.0,-1462.0
1772222084.4220164,11.0,209.0,-1463.0
1772222084.4170852,12.0,202.0,-1468.0
1772222084.425085,9.0,203.0,-1469.0
1772222084.4268441,3.0,207.0,-1464.0
1772222084.434844,4.0,205.0,-1464.0
1772222084.4323397,3.0,205.0,-1468.0
1772222084.4403396,5.0,205.0,-1470.0
1772222084.4585016,8.0,203.0,-1466.0
1772222084.4665015,8.0,207.0,-1461.0
1772222084.4585016,5.0,212.0,-1465.0
1772222084.4665015,4.0,206.0,-1468.0
1772222084.4597435,1.0,199.0,-1466.0
1772222084.4677434,0.0,201.0,-1462.0
1772222084.465914,1.0,199.0,-1463.0
1772222084.473914,-4.0,199.0,-1465.0
1772222084.474097,-3.0,200.0,-1465.0
1772222084.482097,3.0,199.0,-1461.0
1772222084.480275,7.0,203.0,-1461.0
1772222084.4882748,3.0,208.0,-1465.0
1772222084.5171456,-3.0,200.0,-1465.0
1772222084.5251455,3.0,195.0,-1460.0
1772222084.5171456,2.0,205.0,-1458.0
1772222084.5251455,-2.0,198.0,-1464.0
1772222084.553905,-4.0,197.0,-1466.0
1772222084.561905,-6.0,203.0,-1461.0
1772222084.5544817,0.0,201.0,-1458.0
1772222084.5624816,8.0,200.0,-1463.0
1772222084.556004,2.0,201.0,-1464.0
1772222084.564004,-3.0,194.0,-1460.0
1772222084.556004,-1.0,201.0,-1457.0
1772222084.564004,4.0,210.0,-1463.0
1772222084.5570128,5.0,206.0,-1464.0
1772222084.5650127,3.0,208.0,-1460.0
1772222084.5570128,8.0,210.0,-1458.0
1772222084.5650127,8.0,204.0,-1461.0
1772222084.557522,6.0,204.0,-1463.0
1772222084.565522,5.0,207.0,-1462.0
1772222084.5621557,7.0,213.0,-1459.0
1772222084.5701556,7.0,207.0,-1461.0
1772222084.5706136,11.0,207.0,-1465.0
1772222084.5786135,12.0,211.0,-1463.0
1772222084.5767906,7.0,210.0,-1458.0
1772222084.5847905,8.0,210.0,-1459.0
1772222084.6036375,11.0,213.0,-1465.0
1772222084.6116374,11.0,216.0,-1464.0
1772222084.6102426,11.0,216.0,-1458.0
1772222084.6182425,12.0,216.0,-1458.0
1772222084.6102426,13.0,216.0,-1465.0
1772222084.6182425,12.0,216.0,-1464.0
1772222084.6374857,11.0,215.0,-1459.0
1772222084.6454856,12.0,214.0,-1456.0
1772222084.6374857,14.0,216.0,-1463.0
1772222084.6454856,15.0,218.0,-1465.0
1772222084.639509,14.0,218.0,-1458.0
1772222084.6475089,13.0,218.0,-1456.0
1772222084.6415973,13.0,216.0,-1462.0
1772222084.6495972,11.0,215.0,-1463.0
1772222084.6428344,11.0,215.0,-1458.0
1772222084.6508343,13.0,217.0,-1458.0
1772222084.6489968,13.0,220.0,-1460.0
1772222084.6569967,12.0,219.0,-1462.0
1772222084.6587873,14.0,221.0,-1460.0
1772222084.6667871,15.0,226.0,-1458.0
1772222084.6665676,15.0,222.0,-1461.0
1772222084.6745675,15.0,216.0,-1464.0
1772222084.6745937,14.0,221.0,-1464.0
1772222084.6825936,12.0,218.0,-1459.0
1772222084.6951861,15.0,216.0,-1459.0
1772222084.703186,14.0,223.0,-1464.0
1772222084.7095213,16.0,225.0,-1462.0
1772222084.7175212,15.0,219.0,-1458.0
1772222084.7095213,10.0,214.0,-1458.0
1772222084.7175212,11.0,216.0,-1465.0
1772222084.7111297,13.0,218.0,-1465.0
1772222084.7191296,14.0,219.0,-1459.0
1772222084.7126894,15.0,218.0,-1458.0
1772222084.7206893,14.0,216.0,-1464.0
1772222084.7292316,14.0,213.0,-1463.0
1772222084.7372315,11.0,218.0,-1459.0
1772222084.7501826,8.0,219.0,-1459.0
1772222084.7581825,10.0,224.0,-1463.0
1772222084.7517364,8.0,220.0,-1463.0
1772222084.7597363,18.0,211.0,-1462.0
1772222084.7883878,18.0,211.0,-1460.0
1772222084.7963877,7.0,217.0,-1463.0
1772222084.7883878,2.0,212.0,-1466.0
1772222084.7963877,-2.0,199.0,-1463.0
1772222084.8089712,-1.0,206.0,-1459.0
1772222084.816971,0.0,209.0,-1462.0
1772222084.8089712,2.0,203.0,-1469.0
1772222084.816971,2.0,197.0,-1465.0
1772222084.8336,-9.0,198.0,-1459.0
1772222084.8416,-10.0,198.0,-1461.0
1772222084.8336,-7.0,199.0,-1467.0
1772222084.8416,-7.0,199.0,-1466.0
1772222084.8349519,-10.0,202.0,-1460.0
1772222084.8429518,-8.0,203.0,-1460.0
1772222084.8349519,-6.0,198.0,-1467.0
1772222084.8429518,-10.0,195.0,-1467.0
1772222084.8349519,-8.0,196.0,-1463.0
1772222084.8429518,-7.0,200.0,-1462.0
1772222084.8359625,-9.0,201.0,-1466.0
1772222084.8439624,-8.0,198.0,-1467.0
1772222084.8365836,-7.0,197.0,-1462.0
1772222084.8445835,-7.0,196.0,-1461.0
1772222084.8369706,-6.0,197.0,-1466.0
1772222084.8449705,-4.0,199.0,-1468.0
1772222084.8808346,-6.0,199.0,-1464.0
1772222084.8888345,-9.0,196.0,-1461.0
1772222084.8813949,-9.0,195.0,-1466.0
1772222084.8893948,-10.0,195.0,-1469.0
1772222084.8818357,-8.0,195.0,-1465.0
1772222084.8898356,-5.0,196.0,-1462.0
1772222084.8833518,-4.0,198.0,-1464.0
1772222084.8913517,-10.0,192.0,-1466.0
1772222084.8833518,-11.0,189.0,-1464.0
1772222084.8913517,-9.0,189.0,-1457.0
1772222084.8843656,-10.0,192.0,-1458.0
1772222084.8923655,-9.0,191.0,-1465.0
1772222084.890715,-9.0,191.0,-1465.0
1772222084.8987148,-9.0,192.0,-1461.0
1772222084.8970876,-13.0,193.0,-1462.0
1772222084.9050875,-12.0,192.0,-1470.0
1772222084.906765,-14.0,188.0,-1470.0
1772222084.914765,-13.0,188.0,-1465.0
1772222084.9269214,-11.0,189.0,-1464.0
1772222084.9349213,-9.0,189.0,-1468.0
1772222084.9286265,-9.0,195.0,-1470.0
1772222084.9366264,-11.0,198.0,-1466.0
1772222084.9297051,-13.0,195.0,-1463.0
1772222084.937705,-14.0,196.0,-1466.0
1772222084.9381676,-9.0,197.0,-1469.0
1772222084.9461675,-6.0,199.0,-1465.0
1772222084.9455857,-6.0,205.0,-1461.0
1772222084.9535856,-5.0,202.0,-1464.0
1772222084.9551973,-4.0,201.0,-1469.0
1772222084.9631972,-4.0,202.0,-1465.0
1772222084.976648,1.0,198.0,-1461.0
1772222084.984648,6.0,204.0,-1463.0
1772222084.9856176,6.0,213.0,-1469.0
1772222084.9936175,2.0,204.0,-1467.0
1772222084.9871852,-1.0,202.0,-1462.0
1772222084.9951851,0.0,201.0,-1462.0
1772222085.0208864,2.0,202.0,-1468.0
1772222085.0288863,4.0,200.0,-1466.0
1772222085.0208864,4.0,203.0,-1461.0
1772222085.0288863,0.0,203.0,-1460.0
1772222085.0208864,0.0,203.0,-1465.0
1772222085.0288863,1.0,204.0,-1465.0
1772222085.0222473,1.0,201.0,-1461.0
1772222085.0302472,1.0,198.0,-1460.0
1772222085.023866,4.0,195.0,-1466.0
1772222085.0318658,-1.0,200.0,-1466.0
1772222085.0255704,-2.0,199.0,-1465.0
1772222085.0335703,3.0,192.0,-1461.0
1772222085.0384533,-6.0,189.0,-1464.0
1772222085.0464532,-8.0,191.0,-1468.0
1772222085.0417852,-5.0,195.0,-1464.0
1772222085.0497851,-3.0,200.0,-1462.0
1772222085.056765,-4.0,194.0,-1466.0
1772222085.064765,-8.0,187.0,-1468.0
1772222085.0693789,-11.0,186.0,-1465.0
1772222085.0773787,-8.0,189.0,-1460.0
1772222085.0709026,-5.0,189.0,-1464.0
1772222085.0789025,-5.0,189.0,-1469.0
1772222085.072437,-7.0,190.0,-1466.0
1772222085.080437,-8.0,192.0,-1461.0
1772222085.107649,-9.0,192.0,-1462.0
1772222085.115649,-9.0,192.0,-1467.0
1772222085.1106641,-7.0,191.0,-1467.0
1772222085.118664,-7.0,190.0,-1462.0
1772222085.1266873,-7.0,190.0,-1461.0
1772222085.1346872,-10.0,191.0,-1467.0
1772222085.1266873,-11.0,188.0,-1468.0
1772222085.1346872,-8.0,190.0,-1462.0
1772222085.1279173,-9.0,192.0,-1461.0
1772222085.1359172,-11.0,190.0,-1467.0
1772222085.1356168,-14.0,185.0,-1468.0
1772222085.1436167,-13.0,185.0,-1463.0
1772222085.1372037,-9.0,189.0,-1460.0
1772222085.1452036,-8.0,187.0,-1464.0
1772222085.1377196,-14.0,189.0,-1467.0
1772222085.1457195,-16.0,191.0,-1466.0
1772222085.1600182,-9.0,194.0,-1460.0
1772222085.168018,-5.0,194.0,-1461.0
1772222085.161543,-7.0,191.0,-1468.0
1772222085.1695428,-14.0,188.0,-1465.0
1772222085.161543,-14.0,192.0,-1461.0
1772222085.1695428,-15.0,187.0,-1464.0
1772222085.1687994,-15.0,188.0,-1468.0
1772222085.1767993,-14.0,183.0,-1464.0
1772222085.1785085,-11.0,187.0,-1460.0
1772222085.1865084,-6.0,193.0,-1462.0
1772222085.1874967,-7.0,194.0,-1468.0
1772222085.1954966,-13.0,190.0,-1466.0
1772222085.207909,-5.0,192.0,-1461.0
1772222085.215909,-6.0,197.0,-1461.0
1772222085.2263372,-8.0,201.0,-1465.0
1772222085.234337,-5.0,201.0,-1466.0
1772222085.228011,-3.0,206.0,-1463.0
1772222085.2360108,1.0,211.0,-1461.0
1772222085.229559,8.0,210.0,-1466.0
1772222085.2375588,5.0,208.0,-1466.0
1772222085.2316375,4.0,207.0,-1462.0
1772222085.2396374,6.0,208.0,-1461.0
1772222085.2481527,5.0,212.0,-1464.0
1772222085.2561526,6.0,216.0,-1466.0
1772222085.257888,9.0,214.0,-1462.0
1772222085.265888,10.0,214.0,-1461.0
1772222085.257888,10.0,214.0,-1464.0
1772222085.265888,11.0,215.0,-1467.0
1772222085.266471,9.0,217.0,-1465.0
1772222085.2744708,10.0,218.0,-1460.0
1772222085.3011913,10.0,216.0,-1464.0
1772222085.3091912,9.0,218.0,-1468.0
1772222085.301409,12.0,217.0,-1465.0
1772222085.309409,14.0,215.0,-1462.0
1772222085.301409,15.0,218.0,-1463.0
1772222085.309409,15.0,216.0,-1468.0
1772222085.30241,11.0,217.0,-1466.0
1772222085.3104098,9.0,214.0,-1462.0
1772222085.3040245,9.0,210.0,-1463.0
1772222085.3120244,5.0,205.0,-1467.0
1772222085.3055844,4.0,205.0,-1469.0
1772222085.3135843,9.0,207.0,-1463.0
1772222085.3134618,9.0,207.0,-1461.0
1772222085.3214617,10.0,204.0,-1465.0
1772222085.346794,6.0,205.0,-1467.0
1772222085.3547938,0.0,209.0,-1463.0
1772222085.346794,0.0,207.0,-1460.0
1772222085.3547938,2.0,205.0,-1466.0
1772222085.3581371,1.0,204.0,-1467.0
1772222085.366137,2.0,202.0,-1462.0
1772222085.3597274,5.0,203.0,-1459.0
1772222085.3677273,6.0,205.0,-1464.0
1772222085.3627837,5.0,208.0,-1466.0
1772222085.3707836,3.0,213.0,-1466.0
1772222085.3643467,3.0,213.0,-1462.0
1772222085.3723466,8.0,208.0,-1463.0
1772222085.3968592,7.0,205.0,-1467.0
1772222085.404859,3.0,203.0,-1464.0
1772222085.3984468,3.0,208.0,-1462.0
1772222085.4064467,2.0,210.0,-1465.0
1772222085.4015162,1.0,207.0,-1468.0
1772222085.409516,5.0,204.0,-1466.0
1772222085.4045918,3.0,207.0,-1461.0
1772222085.4125917,4.0,208.0,-1461.0
1772222085.4068375,5.0,207.0,-1464.0
1772222085.4148374,2.0,205.0,-1466.0
1772222085.408394,1.0,208.0,-1460.0
1772222085.416394,2.0,210.0,-1459.0
1772222085.4176188,1.0,209.0,-1464.0
1772222085.4256186,2.0,209.0,-1466.0
1772222085.4402847,4.0,208.0,-1461.0
1772222085.4482846,3.0,205.0,-1459.0
1772222085.4402847,5.0,206.0,-1463.0
1772222085.4482846,6.0,207.0,-1463.0
1772222085.459006,7.0,208.0,-1458.0
1772222085.467006,8.0,209.0,-1456.0
1772222085.4593248,8.0,210.0,-1461.0
1772222085.4673247,11.0,210.0,-1461.0
1772222085.4881234,11.0,210.0,-1458.0
1772222085.4961233,9.0,213.0,-1457.0
1772222085.4896457,10.0,215.0,-1461.0
1772222085.4976456,10.0,213.0,-1465.0
1772222085.4896457,12.0,214.0,-1466.0
1772222085.4976456,13.0,216.0,-1463.0
1772222085.490651,15.0,217.0,-1463.0
1772222085.4986508,15.0,217.0,-1467.0
1772222085.49116,13.0,216.0,-1467.0
1772222085.4991598,13.0,215.0,-1460.0
1772222085.497323,12.0,213.0,-1461.0
1772222085.505323,12.0,212.0,-1468.0
1772222085.504962,12.0,213.0,-1467.0
1772222085.5129619,11.0,213.0,-1462.0
1772222085.5146997,9.0,214.0,-1461.0
1772222085.5226996,6.0,211.0,-1466.0
1772222085.5336077,5.0,210.0,-1468.0
1772222085.5416076,6.0,209.0,-1462.0
1772222085.536148,6.0,208.0,-1459.0
1772222085.544148,5.0,208.0,-1464.0
1772222085.5377674,3.0,207.0,-1466.0
1772222085.5457673,4.0,206.0,-1461.0
1772222085.5476334,3.0,204.0,-1460.0
1772222085.5556333,0.0,203.0,-1465.0
1772222085.5802197,1.0,202.0,-1467.0
1772222085.5882196,0.0,201.0,-1465.0
1772222085.5817647,0.0,199.0,-1460.0
1772222085.5897646,1.0,202.0,-1463.0
1772222085.598644,0.0,202.0,-1465.0
1772222085.606644,0.0,199.0,-1465.0
1772222085.6003551,-2.0,199.0,-1460.0
1772222085.608355,-4.0,199.0,-1461.0
1772222085.6039987,-4.0,199.0,-1465.0
1772222085.6119986,-3.0,198.0,-1464.0
1772222085.6039987,-2.0,198.0,-1460.0
1772222085.6119986,-1.0,199.0,-1458.0
1772222085.6282656,-2.0,198.0,-1467.0
1772222085.6362655,-3.0,198.0,-1467.0
1772222085.6282656,-3.0,198.0,-1462.0
1772222085.6362655,-2.0,199.0,-1459.0
1772222085.6368308,-1.0,200.0,-1466.0
1772222085.6448307,-3.0,199.0,-1468.0
1772222085.6368308,-1.0,199.0,-1462.0
1772222085.6448307,-1.0,201.0,-1460.0
1772222085.6368308,1.0,202.0,-1465.0
1772222085.6448307,1.0,201.0,-1467.0
1772222085.6416118,2.0,203.0,-1462.0
1772222085.6496117,3.0,203.0,-1459.0
1772222085.6507177,4.0,203.0,-1463.0
1772222085.6587176,4.0,204.0,-1466.0
1772222085.6722293,6.0,206.0,-1462.0
1772222085.6802292,7.0,206.0,-1460.0
1772222085.6722293,9.0,206.0,-1463.0
1772222085.6802292,8.0,207.0,-1466.0
1772222085.6944451,9.0,207.0,-1464.0
1772222085.702445,10.0,207.0,-1459.0
1772222085.695999,10.0,209.0,-1461.0
1772222085.7039988,12.0,209.0,-1465.0
1772222085.702144,12.0,210.0,-1461.0
1772222085.7101438,12.0,211.0,-1458.0
1772222085.7224572,12.0,212.0,-1459.0
1772222085.730457,14.0,212.0,-1464.0
1772222085.7224572,14.0,212.0,-1463.0
1772222085.730457,14.0,212.0,-1459.0
1772222085.7244875,14.0,213.0,-1457.0
1772222085.7324874,13.0,212.0,-1461.0
1772222085.7252579,13.0,211.0,-1465.0
1772222085.7332578,13.0,211.0,-1459.0
1772222085.7298322,14.0,213.0,-1456.0
1772222085.737832,14.0,212.0,-1460.0
1772222085.7379699,14.0,211.0,-1464.0
1772222085.7459698,14.0,212.0,-1460.0
1772222085.7457063,13.0,213.0,-1457.0
1772222085.7537062,12.0,212.0,-1461.0
1772222085.7560585,13.0,211.0,-1464.0
1772222085.7640584,13.0,212.0,-1461.0
1772222085.7685068,15.0,212.0,-1458.0
1772222085.7765067,14.0,212.0,-1460.0
1772222085.770029,13.0,212.0,-1462.0
1772222085.778029,12.0,211.0,-1460.0
1772222085.7764661,12.0,211.0,-1458.0
1772222085.784466,12.0,210.0,-1460.0
1772222085.7862937,10.0,211.0,-1464.0
1772222085.7942936,6.0,209.0,-1463.0
1772222085.8152218,8.0,208.0,-1459.0
1772222085.8232217,7.0,207.0,-1459.0
1772222085.8152218,5.0,206.0,-1465.0
1772222085.8232217,4.0,206.0,-1464.0
1772222085.8308587,2.0,207.0,-1459.0
1772222085.8388586,1.0,205.0,-1459.0
1772222085.8319895,0.0,203.0,-1464.0
1772222085.8399894,0.0,202.0,-1464.0
1772222085.8335285,-3.0,202.0,-1458.0
1772222085.8415284,-3.0,201.0,-1458.0
1772222085.83504,-3.0,199.0,-1464.0
1772222085.84304,-3.0,200.0,-1467.0
1772222085.8634942,-5.0,199.0,-1462.0
1772222085.871494,-5.0,199.0,-1460.0
1772222085.8634942,-4.0,199.0,-1465.0
1772222085.871494,-3.0,198.0,-1469.0
1772222085.8712673,-4.0,198.0,-1464.0
1772222085.8792672,-4.0,199.0,-1459.0
1772222085.8712673,-3.0,199.0,-1464.0
1772222085.8792672,-2.0,197.0,-1469.0
1772222085.8748226,-2.0,198.0,-1466.0
1772222085.8828225,-2.0,201.0,-1460.0
1772222085.8809657,-3.0,199.0,-1463.0
1772222085.8889656,-3.0,198.0,-1468.0
1772222085.8970041,-3.0,198.0,-1467.0
1772222085.905004,-4.0,198.0,-1463.0
1772222085.9093232,-4.0,198.0,-1464.0
1772222085.917323,-2.0,200.0,-1470.0
1772222085.916846,-1.0,203.0,-1469.0
1772222085.924846,-1.0,202.0,-1464.0
1772222085.930633,-1.0,199.0,-1463.0
1772222085.938633,-1.0,198.0,-1467.0
1772222085.9324453,-1.0,199.0,-1470.0
1772222085.9404452,-2.0,200.0,-1466.0
1772222085.9536939,1.0,201.0,-1464.0
1772222085.9616938,-2.0,200.0,-1469.0
1772222085.9536939,-2.0,200.0,-1470.0
1772222085.9616938,1.0,203.0,-1468.0
1772222085.9546928,-2.0,201.0,-1467.0
1772222085.9626927,-5.0,198.0,-1472.0
1772222085.9564466,-4.0,198.0,-1474.0
1772222085.9644465,-4.0,199.0,-1469.0
1772222085.961093,-6.0,196.0,-1466.0
1772222085.9690928,-6.0,196.0,-1470.0
1772222085.970291,-4.0,198.0,-1474.0
1772222085.9782908,-5.0,197.0,-1471.0
1772222085.9762554,-4.0,197.0,-1467.0
1772222085.9842553,-5.0,197.0,-1468.0
1772222085.9929101,-5.0,197.0,-1473.0
1772222086.00091,-5.0,198.0,-1471.0
1772222086.0059378,-5.0,200.0,-1467.0
1772222086.0139377,-4.0,198.0,-1470.0
1772222086.0126371,-3.0,197.0,-1472.0
1772222086.020637,-4.0,197.0,-1472.0
1772222086.0421665,-6.0,200.0,-1469.0
1772222086.0501664,-5.0,201.0,-1467.0
1772222086.0481791,-4.0,199.0,-1470.0
1772222086.056179,-2.0,199.0,-1469.0
1772222086.0646522,-3.0,200.0,-1465.0
1772222086.072652,-4.0,200.0,-1464.0
1772222086.0646522,-4.0,199.0,-1471.0
1772222086.072652,-6.0,199.0,-1473.0
1772222086.095989,-7.0,199.0,-1470.0
1772222086.103989,-7.0,198.0,-1467.0
1772222086.095989,-8.0,196.0,-1476.0
1772222086.103989,-7.0,196.0,-1479.0
1772222086.1049297,-7.0,196.0,-1474.0
1772222086.1129296,-8.0,196.0,-1471.0
1772222086.1049297,-9.0,194.0,-1474.0
1772222086.1129296,-9.0,193.0,-1477.0
1772222086.1085505,-7.0,196.0,-1472.0
1772222086.1165504,-7.0,195.0,-1468.0
1772222086.1092951,-8.0,194.0,-1472.0
1772222086.117295,-9.0,194.0,-1477.0
1772222086.1092951,-9.0,193.0,-1474.0
1772222086.117295,-8.0,194.0,-1469.0
1772222086.1108742,-6.0,195.0,-1470.0
1772222086.118874,-6.0,194.0,-1474.0
1772222086.1108742,-5.0,195.0,-1474.0
1772222086.118874,-6.0,194.0,-1471.0
1772222086.1141655,-6.0,193.0,-1470.0
1772222086.1221654,-6.0,194.0,-1473.0
1772222086.1292558,-6.0,195.0,-1472.0
1772222086.1372557,-6.0,196.0,-1469.0
1772222086.1399884,-6.0,197.0,-1472.0
1772222086.1479883,-6.0,195.0,-1474.0
1772222086.1399884,-5.0,194.0,-1473.0
1772222086.1479883,-5.0,194.0,-1470.0
1772222086.1899805,-5.0,196.0,-1470.0
1772222086.1979804,-4.0,198.0,-1473.0
1772222086.1899805,-1.0,199.0,-1476.0
1772222086.1979804,0.0,199.0,-1473.0
1772222086.1899805,0.0,200.0,-1468.0
1772222086.1979804,-1.0,200.0,-1472.0
1772222086.190983,-2.0,200.0,-1476.0
1772222086.198983,-1.0,200.0,-1473.0
1772222086.197494,-1.0,201.0,-1468.0
1772222086.205494,0.0,202.0,-1468.0
1772222086.197494,1.0,202.0,-1474.0
1772222086.205494,1.0,203.0,-1474.0
1772222086.197494,1.0,202.0,-1469.0
1772222086.205494,1.0,203.0,-1469.0
1772222086.2031217,0.0,203.0,-1475.0
1772222086.2111216,0.0,203.0,-1474.0
1772222086.2094564,1.0,203.0,-1469.0
1772222086.2174563,1.0,204.0,-1468.0
1772222086.2276618,0.0,203.0,-1471.0
1772222086.2356617,-1.0,202.0,-1472.0
1772222086.2345543,0.0,202.0,-1471.0
1772222086.2425542,0.0,203.0,-1468.0
1772222086.2345543,0.0,202.0,-1472.0
1772222086.2425542,2.0,203.0,-1473.0
1772222086.2410407,1.0,203.0,-1469.0
1772222086.2490406,2.0,203.0,-1464.0
1772222086.2487931,2.0,203.0,-1469.0
1772222086.256793,0.0,203.0,-1473.0
1772222086.2580605,1.0,203.0,-1469.0
1772222086.2660604,2.0,203.0,-1463.0
1772222086.283029,3.0,204.0,-1466.0
1772222086.291029,3.0,203.0,-1468.0
1772222086.2841384,5.0,204.0,-1467.0
1772222086.2921383,5.0,206.0,-1463.0
1772222086.3078094,6.0,205.0,-1463.0
1772222086.3158092,7.0,205.0,-1469.0
1772222086.3169997,7.0,206.0,-1467.0
1772222086.3249996,8.0,206.0,-1462.0
1772222086.3295815,8.0,207.0,-1461.0
1772222086.3375814,8.0,206.0,-1469.0
1772222086.3295815,8.0,207.0,-1468.0
1772222086.3375814,10.0,208.0,-1462.0
1772222086.3295815,11.0,209.0,-1463.0
1772222086.3375814,12.0,210.0,-1467.0
1772222086.3305838,13.0,211.0,-1467.0
1772222086.3385837,15.0,212.0,-1463.0
1772222086.3364022,15.0,214.0,-1463.0
1772222086.344402,17.0,213.0,-1466.0
1772222086.3384225,16.0,213.0,-1469.0
1772222086.3464224,17.0,215.0,-1464.0
1772222086.3522217,17.0,215.0,-1460.0
1772222086.3602216,17.0,215.0,-1464.0
1772222086.354304,18.0,216.0,-1467.0
1772222086.362304,18.0,216.0,-1465.0
1772222086.3745823,19.0,217.0,-1462.0
1772222086.3825822,19.0,217.0,-1465.0
1772222086.3803277,20.0,218.0,-1469.0
1772222086.3883276,20.0,218.0,-1466.0
1772222086.3803277,20.0,219.0,-1462.0
1772222086.3883276,21.0,218.0,-1465.0
1772222086.4030232,22.0,219.0,-1471.0
1772222086.4110231,23.0,220.0,-1469.0
1772222086.4158669,23.0,220.0,-1465.0
1772222086.4238667,23.0,219.0,-1466.0
1772222086.4281178,22.0,219.0,-1471.0
1772222086.4361176,22.0,219.0,-1471.0
1772222086.4281178,22.0,219.0,-1466.0
1772222086.4361176,23.0,221.0,-1466.0
1772222086.429493,23.0,221.0,-1471.0
1772222086.4374928,23.0,221.0,-1474.0
1772222086.429493,24.0,220.0,-1468.0
1772222086.4374928,25.0,221.0,-1466.0
1772222086.4320846,25.0,223.0,-1471.0
1772222086.4400845,24.0,222.0,-1472.0
1772222086.441309,25.0,222.0,-1469.0
1772222086.4493089,26.0,222.0,-1466.0
1772222086.4567704,26.0,221.0,-1471.0
1772222086.4647703,25.0,222.0,-1473.0
1772222086.4688933,25.0,223.0,-1467.0
1772222086.4768932,25.0,222.0,-1465.0
1772222086.4749384,25.0,223.0,-1469.0
1772222086.4829383,26.0,223.0,-1471.0
1772222086.4749384,25.0,223.0,-1467.0
1772222086.4829383,25.0,223.0,-1460.0
1772222086.4814773,25.0,223.0,-1462.0
1772222086.4894772,25.0,222.0,-1467.0
1772222086.4900625,25.0,222.0,-1464.0
1772222086.4980624,25.0,222.0,-1458.0
1772222086.507641,27.0,223.0,-1458.0
1772222086.515641,25.0,223.0,-1460.0
1772222086.5215697,26.0,222.0,-1458.0
1772222086.5295696,25.0,222.0,-1453.0
1772222086.5597746,25.0,222.0,-1451.0
1772222086.5677745,24.0,222.0,-1455.0
1772222086.5606203,25.0,222.0,-1454.0
1772222086.5686202,25.0,223.0,-1449.0
1772222086.5606203,25.0,223.0,-1447.0
1772222086.5686202,25.0,222.0,-1452.0
1772222086.5606203,25.0,222.0,-1454.0
1772222086.5686202,24.0,222.0,-1450.0
1772222086.5664814,25.0,223.0,-1447.0
1772222086.5744812,24.0,222.0,-1452.0
1772222086.5664814,24.0,221.0,-1455.0
1772222086.5744812,24.0,222.0,-1450.0
1772222086.5664814,25.0,223.0,-1449.0
1772222086.5744812,24.0,222.0,-1454.0
1772222086.5717568,24.0,222.0,-1458.0
1772222086.5797567,25.0,222.0,-1455.0
1772222086.5759468,26.0,222.0,-1450.0
1772222086.5839467,27.0,223.0,-1451.0
1772222086.5848167,27.0,223.0,-1456.0
1772222086.5928166,25.0,222.0,-1455.0
1772222086.606294,25.0,223.0,-1452.0
1772222086.6142938,25.0,223.0,-1457.0
1772222086.612171,25.0,223.0,-1464.0
1772222086.6201708,24.0,222.0,-1466.0
1772222086.612171,25.0,222.0,-1461.0
1772222086.6201708,25.0,222.0,-1463.0
1772222086.6514409,25.0,222.0,-1467.0
1772222086.6594408,24.0,223.0,-1470.0
1772222086.6514409,23.0,222.0,-1466.0
1772222086.6594408,24.0,222.0,-1465.0
1772222086.6526947,24.0,221.0,-1470.0
1772222086.6606946,24.0,220.0,-1471.0
1772222086.6526947,24.0,221.0,-1466.0
1772222086.6606946,25.0,222.0,-1464.0
1772222086.6757195,25.0,222.0,-1469.0
1772222086.6837194,25.0,221.0,-1472.0
1772222086.677312,26.0,222.0,-1470.0
1772222086.6853118,24.0,222.0,-1468.0
1772222086.6992815,24.0,221.0,-1470.0
1772222086.7072814,25.0,221.0,-1475.0
1772222086.6992815,25.0,222.0,-1473.0
1772222086.7072814,25.0,222.0,-1469.0
1772222086.7005153,25.0,222.0,-1472.0
1772222086.7085152,24.0,222.0,-1478.0
1772222086.702037,24.0,223.0,-1477.0
1772222086.710037,24.0,222.0,-1477.0
1772222086.702037,24.0,221.0,-1480.0
1772222086.710037,25.0,221.0,-1486.0
1772222086.7072706,25.0,222.0,-1489.0
1772222086.7152705,25.0,222.0,-1487.0
1772222086.713385,25.0,222.0,-1487.0
1772222086.721385,25.0,222.0,-1491.0
1772222086.7221088,24.0,221.0,-1493.0
1772222086.7301087,23.0,222.0,-1489.0
1772222086.7295578,24.0,221.0,-1488.0
1772222086.7375576,24.0,221.0,-1492.0
1772222086.7551382,24.0,221.0,-1492.0
1772222086.763138,24.0,222.0,-1488.0
1772222086.7561462,24.0,222.0,-1486.0
1772222086.764146,24.0,222.0,-1490.0
1772222086.7624278,24.0,221.0,-1492.0
1772222086.7704277,24.0,221.0,-1487.0
1772222086.7640717,24.0,221.0,-1482.0
1772222086.7720716,24.0,220.0,-1487.0
1772222086.7689292,23.0,220.0,-1491.0
1772222086.7769291,25.0,221.0,-1488.0
1772222086.7924464,25.0,222.0,-1481.0
1772222086.8004463,24.0,221.0,-1486.0
1772222086.7939725,23.0,220.0,-1490.0
1772222086.8019724,23.0,220.0,-1486.0
1772222086.7939725,24.0,220.0,-1481.0
1772222086.8019724,23.0,220.0,-1482.0
1772222086.8010817,24.0,221.0,-1486.0
1772222086.8090816,23.0,221.0,-1484.0
1772222086.8096585,23.0,221.0,-1479.0
1772222086.8176584,25.0,221.0,-1478.0
1772222086.817169,25.0,221.0,-1482.0
1772222086.8251688,24.0,221.0,-1482.0
1772222086.8390887,24.0,221.0,-1477.0
1772222086.8470886,24.0,220.0,-1475.0
1772222086.84111,24.0,221.0,-1480.0
1772222086.84911,24.0,220.0,-1480.0
1772222086.8418484,25.0,221.0,-1476.0
1772222086.8498483,25.0,221.0,-1474.0
1772222086.8495634,24.0,221.0,-1476.0
1772222086.8575633,24.0,222.0,-1480.0
1772222086.8748748,25.0,221.0,-1477.0
1772222086.8828747,24.0,220.0,-1471.0
1772222086.8765323,23.0,220.0,-1475.0
1772222086.8845322,23.0,219.0,-1481.0
1772222086.8991795,23.0,220.0,-1478.0
1772222086.9071794,25.0,220.0,-1473.0
1772222086.9043248,24.0,220.0,-1475.0
1772222086.9123247,24.0,220.0,-1478.0
1772222086.9043248,24.0,220.0,-1476.0
1772222086.9123247,24.0,220.0,-1474.0
1772222086.9058578,23.0,219.0,-1475.0
1772222086.9138577,23.0,219.0,-1480.0
1772222086.9058578,24.0,220.0,-1478.0
1772222086.9138577,24.0,220.0,-1475.0
1772222086.913133,24.0,220.0,-1475.0
1772222086.9211328,24.0,220.0,-1480.0
1772222086.922189,25.0,220.0,-1481.0
1772222086.930189,25.0,221.0,-1476.0
1772222086.9291003,24.0,220.0,-1474.0
1772222086.9371002,25.0,220.0,-1480.0
1772222086.9484186,25.0,220.0,-1482.0
1772222086.9564185,25.0,220.0,-1476.0
1772222086.9484186,25.0,221.0,-1474.0
1772222086.9564185,25.0,220.0,-1478.0
1772222086.9545774,23.0,219.0,-1481.0
1772222086.9625773,24.0,219.0,-1478.0
1772222086.9609802,24.0,220.0,-1473.0
1772222086.96898,23.0,220.0,-1476.0
1772222086.9686704,24.0,220.0,-1481.0
1772222086.9766703,23.0,221.0,-1480.0
1772222086.9982638,24.0,222.0,-1477.0
1772222087.0062637,25.0,221.0,-1479.0
1772222086.9999151,25.0,221.0,-1485.0
1772222087.007915,24.0,221.0,-1482.0
1772222087.0183551,25.0,221.0,-1479.0
1772222087.026355,25.0,220.0,-1479.0
1772222087.0193613,24.0,220.0,-1483.0
1772222087.0273612,24.0,221.0,-1483.0
1772222087.0211544,25.0,222.0,-1477.0
1772222087.0291543,25.0,222.0,-1478.0
1772222087.0237424,25.0,222.0,-1483.0
1772222087.0317423,25.0,222.0,-1482.0
1772222087.040939,26.0,222.0,-1476.0
1772222087.048939,25.0,222.0,-1473.0
1772222087.0424607,25.0,221.0,-1478.0
