# team: unknown
# label: peace_baseline-EOG
# timestamp: 20260227_150451
# sample_rate: 250
# samples: 15216
# duration_sec: 60.868
# channels: EOG1,EOG2,EMG3
#
timestamp,EOG1,EOG2,EMG3
1772222630.956964,47.0,356.0,-1276.0
1772222630.964964,46.0,355.0,-1277.0
1772222630.9585502,52.0,356.0,-1274.0
1772222630.96655,54.0,359.0,-1271.0
1772222630.9605627,54.0,363.0,-1271.0
1772222630.9685626,53.0,358.0,-1279.0
1772222630.9640925,52.0,354.0,-1283.0
1772222630.9720924,52.0,351.0,-1277.0
1772222630.9843113,54.0,356.0,-1276.0
1772222630.9923112,52.0,357.0,-1284.0
1772222630.990643,53.0,356.0,-1284.0
1772222630.998643,55.0,358.0,-1279.0
1772222630.990643,56.0,358.0,-1276.0
1772222630.998643,55.0,352.0,-1280.0
1772222631.0022075,56.0,357.0,-1280.0
1772222631.0102074,54.0,357.0,-1277.0
1772222631.0052571,51.0,355.0,-1277.0
1772222631.013257,51.0,352.0,-1278.0
1772222631.0143075,50.0,349.0,-1278.0
1772222631.0223074,49.0,346.0,-1274.0
1772222631.0535004,50.0,344.0,-1273.0
1772222631.0615003,49.0,344.0,-1275.0
1772222631.0535004,45.0,346.0,-1275.0
1772222631.0615003,43.0,345.0,-1276.0
1772222631.0547338,42.0,342.0,-1275.0
1772222631.0627337,44.0,338.0,-1273.0
1772222631.0800052,44.0,337.0,-1275.0
1772222631.088005,43.0,340.0,-1274.0
1772222631.088601,41.0,338.0,-1273.0
1772222631.096601,40.0,337.0,-1272.0
1772222631.088601,39.0,337.0,-1277.0
1772222631.096601,38.0,335.0,-1278.0
1772222631.0968301,39.0,330.0,-1274.0
1772222631.10483,37.0,331.0,-1271.0
1772222631.0981283,35.0,330.0,-1275.0
1772222631.1061282,34.0,329.0,-1278.0
1772222631.0981283,32.0,324.0,-1273.0
1772222631.1061282,31.0,323.0,-1275.0
1772222631.0981283,32.0,323.0,-1279.0
1772222631.1061282,30.0,322.0,-1279.0
1772222631.1016498,28.0,323.0,-1278.0
1772222631.1096497,27.0,323.0,-1275.0
1772222631.1112034,29.0,319.0,-1276.0
1772222631.1192033,29.0,318.0,-1280.0
1772222631.132113,28.0,320.0,-1279.0
1772222631.1401129,25.0,318.0,-1277.0
1772222631.1340384,24.0,315.0,-1276.0
1772222631.1420383,22.0,312.0,-1278.0
1772222631.1348128,20.0,314.0,-1281.0
1772222631.1428127,22.0,312.0,-1277.0
1772222631.1408567,25.0,308.0,-1279.0
1772222631.1488566,21.0,307.0,-1281.0
1772222631.1519296,20.0,309.0,-1282.0
1772222631.1599295,23.0,312.0,-1279.0
1772222631.180545,22.0,309.0,-1278.0
1772222631.188545,23.0,308.0,-1282.0
1772222631.180545,19.0,307.0,-1282.0
1772222631.188545,18.0,305.0,-1279.0
1772222631.1936243,26.0,312.0,-1277.0
1772222631.2016242,21.0,311.0,-1278.0
1772222631.1951878,21.0,302.0,-1282.0
1772222631.2031877,24.0,307.0,-1279.0
1772222631.1972024,18.0,314.0,-1278.0
1772222631.2052023,21.0,317.0,-1279.0
1772222631.199226,22.0,306.0,-1283.0
1772222631.2072258,22.0,300.0,-1279.0
1772222631.2033076,24.0,304.0,-1279.0
1772222631.2113075,19.0,310.0,-1280.0
1772222631.225822,21.0,313.0,-1281.0
1772222631.2338219,24.0,317.0,-1282.0
1772222631.2278209,24.0,312.0,-1279.0
1772222631.2358208,26.0,312.0,-1278.0
1772222631.229555,28.0,314.0,-1283.0
1772222631.2375548,29.0,319.0,-1280.0
1772222631.237817,27.0,322.0,-1277.0
1772222631.245817,32.0,318.0,-1279.0
1772222631.2445128,26.0,317.0,-1281.0
1772222631.2525127,23.0,313.0,-1279.0
1772222631.2522452,26.0,315.0,-1275.0
1772222631.260245,26.0,316.0,-1278.0
1772222631.2614155,27.0,316.0,-1283.0
1772222631.2694154,26.0,315.0,-1281.0
1772222631.2735956,26.0,315.0,-1277.0
1772222631.2815955,28.0,317.0,-1276.0
1772222631.3010402,26.0,318.0,-1277.0
1772222631.30904,25.0,320.0,-1277.0
1772222631.31936,25.0,321.0,-1280.0
1772222631.32736,29.0,318.0,-1277.0
1772222631.3267612,30.0,315.0,-1280.0
1772222631.3347611,27.0,316.0,-1279.0
1772222631.328275,28.0,316.0,-1276.0
1772222631.3362749,26.0,315.0,-1274.0
1772222631.3668506,25.0,318.0,-1279.0
1772222631.3748505,24.0,314.0,-1278.0
1772222631.3676631,24.0,313.0,-1278.0
1772222631.375663,26.0,315.0,-1277.0
1772222631.3835886,27.0,317.0,-1278.0
1772222631.3915884,25.0,317.0,-1281.0
1772222631.385188,24.0,317.0,-1279.0
1772222631.393188,25.0,318.0,-1276.0
1772222631.385188,26.0,317.0,-1275.0
1772222631.393188,28.0,316.0,-1281.0
1772222631.4093583,30.0,315.0,-1280.0
1772222631.4173582,28.0,316.0,-1276.0
1772222631.4097328,24.0,317.0,-1275.0
1772222631.4177327,21.0,312.0,-1280.0
1772222631.4113438,22.0,311.0,-1277.0
1772222631.4193437,23.0,315.0,-1278.0
1772222631.4353166,24.0,315.0,-1278.0
1772222631.4433165,25.0,314.0,-1282.0
1772222631.4368808,23.0,315.0,-1281.0
1772222631.4448807,25.0,319.0,-1278.0
1772222631.4571712,26.0,317.0,-1278.0
1772222631.465171,23.0,313.0,-1279.0
1772222631.4573166,22.0,312.0,-1280.0
1772222631.4653165,26.0,316.0,-1280.0
1772222631.4573166,25.0,316.0,-1279.0
1772222631.4653165,25.0,315.0,-1280.0
1772222631.4583192,25.0,315.0,-1283.0
1772222631.466319,25.0,315.0,-1279.0
1772222631.4589276,24.0,313.0,-1274.0
1772222631.4669275,23.0,314.0,-1276.0
1772222631.46057,22.0,315.0,-1282.0
1772222631.46857,23.0,317.0,-1281.0
1772222631.46057,25.0,318.0,-1281.0
1772222631.46857,26.0,318.0,-1279.0
1772222631.46057,24.0,315.0,-1279.0
1772222631.46857,25.0,313.0,-1279.0
1772222631.4619772,25.0,314.0,-1281.0
1772222631.4699771,25.0,312.0,-1279.0
1772222631.463547,25.0,311.0,-1281.0
1772222631.471547,25.0,311.0,-1281.0
1772222631.4686515,23.0,312.0,-1283.0
1772222631.4766514,20.0,317.0,-1279.0
1772222631.4776087,23.0,319.0,-1281.0
1772222631.4856086,25.0,311.0,-1283.0
1772222631.5045273,28.0,316.0,-1279.0
1772222631.5125272,27.0,315.0,-1279.0
1772222631.5177076,23.0,312.0,-1281.0
1772222631.5257075,21.0,320.0,-1283.0
1772222631.5233886,22.0,322.0,-1280.0
1772222631.5313885,30.0,322.0,-1279.0
1772222631.5249383,31.0,317.0,-1281.0
1772222631.5329382,34.0,320.0,-1283.0
1772222631.5446134,35.0,319.0,-1280.0
1772222631.5526133,30.0,319.0,-1277.0
1772222631.5514545,27.0,320.0,-1278.0
1772222631.5594544,32.0,321.0,-1278.0
1772222631.5529802,39.0,320.0,-1275.0
1772222631.56098,43.0,319.0,-1273.0
1772222631.5529802,35.0,314.0,-1272.0
1772222631.56098,27.0,315.0,-1275.0
1772222631.5551662,29.0,318.0,-1279.0
1772222631.5631661,33.0,318.0,-1275.0
1772222631.5567136,31.0,322.0,-1282.0
1772222631.5647135,28.0,317.0,-1278.0
1772222631.5664837,30.0,314.0,-1278.0
1772222631.5744836,32.0,317.0,-1284.0
1772222631.574181,29.0,321.0,-1281.0
1772222631.582181,32.0,320.0,-1282.0
1772222631.5973718,36.0,314.0,-1282.0
1772222631.6053717,35.0,315.0,-1280.0
1772222631.5973718,26.0,319.0,-1277.0
1772222631.6053717,32.0,315.0,-1281.0
1772222631.603927,30.0,316.0,-1282.0
1772222631.6119268,29.0,323.0,-1280.0
1772222631.603927,30.0,319.0,-1278.0
1772222631.6119268,30.0,315.0,-1279.0
1772222631.611979,31.0,312.0,-1282.0
1772222631.619979,31.0,316.0,-1281.0
1772222631.6350462,36.0,319.0,-1278.0
1772222631.6430461,34.0,313.0,-1279.0
1772222631.645208,25.0,314.0,-1282.0
1772222631.6532078,21.0,312.0,-1278.0
1772222631.6477954,24.0,305.0,-1277.0
1772222631.6557953,25.0,304.0,-1278.0
1772222631.662724,29.0,309.0,-1279.0
1772222631.670724,30.0,310.0,-1281.0
1772222631.6659656,20.0,306.0,-1280.0
1772222631.6739655,19.0,308.0,-1276.0
1772222631.6676607,24.0,312.0,-1277.0
1772222631.6756606,22.0,307.0,-1284.0
1772222631.6676607,27.0,305.0,-1278.0
1772222631.6756606,25.0,305.0,-1277.0
1772222631.6908007,29.0,305.0,-1279.0
1772222631.6988006,25.0,308.0,-1280.0
1772222631.692327,20.0,308.0,-1281.0
1772222631.700327,19.0,307.0,-1277.0
1772222631.692327,23.0,304.0,-1279.0
1772222631.700327,21.0,307.0,-1278.0
1772222631.701397,20.0,306.0,-1277.0
1772222631.7093968,23.0,309.0,-1278.0
1772222631.7100444,24.0,308.0,-1279.0
1772222631.7180443,22.0,308.0,-1283.0
1772222631.718667,23.0,307.0,-1279.0
1772222631.726667,22.0,302.0,-1277.0
1772222631.7393048,23.0,300.0,-1278.0
1772222631.7473047,21.0,304.0,-1282.0
1772222631.7408245,20.0,302.0,-1279.0
1772222631.7488244,21.0,305.0,-1279.0
1772222631.7408245,22.0,306.0,-1277.0
1772222631.7488244,25.0,310.0,-1278.0
1772222631.7851233,25.0,304.0,-1280.0
1772222631.7931232,20.0,305.0,-1277.0
1772222631.786645,21.0,302.0,-1279.0
1772222631.7946448,24.0,302.0,-1280.0
1772222631.786645,23.0,300.0,-1278.0
1772222631.7946448,24.0,302.0,-1275.0
1772222631.7940938,27.0,309.0,-1274.0
1772222631.8020937,25.0,310.0,-1277.0
1772222631.7978537,21.0,304.0,-1285.0
1772222631.8058536,24.0,303.0,-1279.0
1772222631.7994025,31.0,309.0,-1280.0
1772222631.8074024,30.0,310.0,-1281.0
1772222631.80013,21.0,308.0,-1280.0
1772222631.8081298,22.0,301.0,-1280.0
1772222631.803234,23.0,305.0,-1279.0
1772222631.811234,25.0,309.0,-1279.0
1772222631.8129416,25.0,306.0,-1282.0
1772222631.8209414,27.0,314.0,-1283.0
1772222631.8314145,30.0,311.0,-1280.0
1772222631.8394144,27.0,308.0,-1280.0
1772222631.8329523,26.0,313.0,-1283.0
1772222631.8409522,27.0,310.0,-1281.0
1772222631.8360424,27.0,307.0,-1278.0
1772222631.8440423,29.0,313.0,-1282.0
1772222631.845922,27.0,311.0,-1282.0
1772222631.853922,26.0,311.0,-1283.0
1772222631.852041,26.0,308.0,-1280.0
1772222631.860041,31.0,310.0,-1277.0
1772222631.8744717,29.0,312.0,-1283.0
1772222631.8824716,26.0,309.0,-1283.0
1772222631.8853962,26.0,312.0,-1280.0
1772222631.8933961,27.0,312.0,-1280.0
1772222631.8864572,29.0,314.0,-1282.0
1772222631.894457,30.0,311.0,-1282.0
1772222631.9005764,27.0,308.0,-1281.0
1772222631.9085763,25.0,311.0,-1279.0
1772222631.9021153,26.0,310.0,-1279.0
1772222631.9101152,27.0,307.0,-1283.0
1772222631.9036276,27.0,310.0,-1281.0
1772222631.9116275,29.0,313.0,-1281.0
1772222631.9222512,28.0,311.0,-1281.0
1772222631.9302511,24.0,309.0,-1283.0
1772222631.9248314,25.0,314.0,-1280.0
1772222631.9328313,27.0,309.0,-1279.0
1772222631.926356,30.0,303.0,-1281.0
1772222631.934356,28.0,306.0,-1283.0
1772222631.964075,25.0,308.0,-1281.0
1772222631.972075,21.0,307.0,-1279.0
1772222631.964075,24.0,307.0,-1280.0
1772222631.972075,23.0,311.0,-1281.0
1772222631.9655058,24.0,310.0,-1280.0
1772222631.9735057,27.0,310.0,-1279.0
1772222631.9670265,30.0,308.0,-1280.0
1772222631.9750264,28.0,310.0,-1285.0
1772222631.9670265,26.0,308.0,-1286.0
1772222631.9750264,27.0,308.0,-1281.0
1772222631.9720743,28.0,309.0,-1280.0
1772222631.9800742,26.0,311.0,-1281.0
1772222631.9816535,25.0,308.0,-1285.0
1772222631.9896533,29.0,310.0,-1285.0
1772222632.0114057,28.0,313.0,-1282.0
1772222632.0194056,25.0,314.0,-1283.0
1772222632.0114057,29.0,310.0,-1285.0
1772222632.0194056,29.0,309.0,-1284.0
1772222632.0214899,23.0,309.0,-1281.0
1772222632.0294898,25.0,315.0,-1283.0
1772222632.02309,25.0,313.0,-1285.0
1772222632.0310898,30.0,308.0,-1282.0
1772222632.024155,31.0,308.0,-1279.0
1772222632.0321548,32.0,307.0,-1284.0
1772222632.0271862,31.0,310.0,-1287.0
1772222632.035186,30.0,313.0,-1283.0
1772222632.0397794,28.0,316.0,-1277.0
1772222632.0477793,25.0,310.0,-1284.0
1772222632.0549212,25.0,306.0,-1286.0
1772222632.062921,27.0,308.0,-1285.0
1772222632.0634365,29.0,308.0,-1279.0
1772222632.0714364,32.0,308.0,-1282.0
1772222632.0634365,29.0,311.0,-1288.0
1772222632.0714364,28.0,313.0,-1286.0
1772222632.0715,30.0,310.0,-1284.0
1772222632.0795,33.0,307.0,-1282.0
1772222632.0775826,33.0,312.0,-1285.0
1772222632.0855825,30.0,316.0,-1283.0
1772222632.0846474,24.0,308.0,-1282.0
1772222632.0926473,29.0,306.0,-1283.0
1772222632.0917904,35.0,316.0,-1284.0
1772222632.0997903,37.0,313.0,-1285.0
1772222632.1205566,31.0,313.0,-1281.0
1772222632.1285565,29.0,314.0,-1280.0
1772222632.1205566,34.0,313.0,-1278.0
1772222632.1285565,34.0,311.0,-1281.0
1772222632.1386604,43.0,316.0,-1278.0
1772222632.1466603,42.0,326.0,-1273.0
1772222632.1399305,35.0,324.0,-1280.0
1772222632.1479304,31.0,311.0,-1289.0
1772222632.1570811,35.0,310.0,-1287.0
1772222632.165081,39.0,314.0,-1288.0
1772222632.1570811,35.0,313.0,-1287.0
1772222632.165081,38.0,315.0,-1291.0
1772222632.1590953,35.0,314.0,-1290.0
1772222632.1670952,35.0,317.0,-1282.0
1772222632.1737518,37.0,316.0,-1286.0
1772222632.1817517,40.0,313.0,-1288.0
1772222632.1737518,39.0,312.0,-1288.0
1772222632.1817517,34.0,314.0,-1286.0
1772222632.1757898,32.0,313.0,-1285.0
1772222632.1837897,33.0,311.0,-1288.0
1772222632.180331,34.0,313.0,-1287.0
1772222632.188331,33.0,312.0,-1282.0
1772222632.2062984,35.0,314.0,-1280.0
1772222632.2142982,36.0,313.0,-1285.0
1772222632.2123795,36.0,314.0,-1285.0
1772222632.2203794,34.0,313.0,-1283.0
1772222632.2123795,31.0,312.0,-1283.0
1772222632.2203794,35.0,309.0,-1281.0
1772222632.213773,36.0,311.0,-1285.0
1772222632.221773,34.0,316.0,-1284.0
1772222632.2493453,32.0,311.0,-1278.0
1772222632.2573452,32.0,307.0,-1277.0
1772222632.2497845,34.0,310.0,-1284.0
1772222632.2577844,33.0,313.0,-1282.0
1772222632.2634509,36.0,314.0,-1283.0
1772222632.2714508,37.0,315.0,-1284.0
1772222632.2660527,33.0,316.0,-1286.0
1772222632.2740526,32.0,312.0,-1284.0
1772222632.2675898,34.0,310.0,-1280.0
1772222632.2755897,40.0,314.0,-1283.0
1772222632.2691083,38.0,313.0,-1284.0
1772222632.2771082,34.0,310.0,-1282.0
1772222632.2706256,32.0,315.0,-1280.0
1772222632.2786255,36.0,316.0,-1282.0
1772222632.2766995,33.0,313.0,-1282.0
1772222632.2846994,35.0,311.0,-1284.0
1772222632.2919154,32.0,314.0,-1283.0
1772222632.2999153,31.0,315.0,-1282.0
1772222632.2974527,33.0,311.0,-1284.0
1772222632.3054526,36.0,308.0,-1286.0
1772222632.3004797,36.0,309.0,-1283.0
1772222632.3084795,32.0,310.0,-1281.0
1772222632.3126295,33.0,310.0,-1285.0
1772222632.3206294,35.0,306.0,-1286.0
1772222632.316163,30.0,303.0,-1284.0
1772222632.324163,26.0,305.0,-1281.0
1772222632.3242586,29.0,307.0,-1283.0
1772222632.3322585,30.0,302.0,-1282.0
1772222632.341414,30.0,304.0,-1280.0
1772222632.3494139,30.0,302.0,-1282.0
1772222632.357099,30.0,302.0,-1284.0
1772222632.365099,31.0,305.0,-1285.0
1772222632.3586547,30.0,305.0,-1283.0
1772222632.3666546,29.0,305.0,-1282.0
1772222632.3877618,31.0,304.0,-1282.0
1772222632.3957617,35.0,309.0,-1285.0
1772222632.3877618,35.0,305.0,-1286.0
1772222632.3957617,30.0,302.0,-1279.0
1772222632.389204,28.0,306.0,-1282.0
1772222632.397204,28.0,307.0,-1288.0
1772222632.3907251,33.0,306.0,-1284.0
1772222632.398725,34.0,304.0,-1282.0
1772222632.3952553,31.0,305.0,-1286.0
1772222632.4032552,30.0,305.0,-1288.0
1772222632.397801,29.0,302.0,-1287.0
1772222632.4058008,25.0,304.0,-1285.0
1772222632.4054437,27.0,306.0,-1285.0
1772222632.4134436,30.0,305.0,-1285.0
1772222632.4115403,30.0,303.0,-1292.0
1772222632.4195402,30.0,299.0,-1289.0
1772222632.4295442,25.0,304.0,-1284.0
1772222632.437544,25.0,304.0,-1285.0
1772222632.4365487,23.0,300.0,-1287.0
1772222632.4445486,26.0,304.0,-1288.0
1772222632.4380736,31.0,309.0,-1288.0
1772222632.4460735,31.0,308.0,-1285.0
1772222632.4632983,26.0,303.0,-1288.0
1772222632.4712982,25.0,298.0,-1288.0
1772222632.4632983,27.0,299.0,-1283.0
1772222632.4712982,25.0,301.0,-1287.0
1772222632.466204,22.0,306.0,-1288.0
1772222632.4742038,26.0,308.0,-1289.0
1772222632.4893904,32.0,307.0,-1287.0
1772222632.4973903,32.0,303.0,-1285.0
1772222632.4909072,24.0,299.0,-1289.0
1772222632.498907,25.0,302.0,-1291.0
1772222632.4985247,22.0,301.0,-1288.0
1772222632.5065246,24.0,300.0,-1285.0
1772222632.5002465,22.0,300.0,-1287.0
1772222632.5082464,23.0,300.0,-1289.0
1772222632.5017633,28.0,303.0,-1287.0
1772222632.5097632,26.0,305.0,-1286.0
1772222632.5083964,21.0,305.0,-1289.0
1772222632.5163963,23.0,299.0,-1289.0
1772222632.5315475,25.0,300.0,-1290.0
1772222632.5395474,27.0,302.0,-1289.0
1772222632.5330691,21.0,305.0,-1292.0
1772222632.541069,24.0,304.0,-1291.0
1772222632.5346062,29.0,301.0,-1288.0
1772222632.542606,27.0,299.0,-1286.0
1772222632.5406578,25.0,301.0,-1286.0
1772222632.5486577,19.0,305.0,-1290.0
1772222632.547734,18.0,301.0,-1292.0
1772222632.555734,22.0,301.0,-1289.0
1772222632.5568635,24.0,300.0,-1289.0
1772222632.5648634,24.0,299.0,-1290.0
1772222632.5804963,23.0,300.0,-1291.0
1772222632.5884962,18.0,299.0,-1289.0
1772222632.5932004,23.0,298.0,-1287.0
1772222632.6012003,24.0,299.0,-1290.0
1772222632.5940003,21.0,298.0,-1290.0
1772222632.6020002,22.0,299.0,-1291.0
1772222632.623384,13.0,298.0,-1290.0
1772222632.631384,14.0,295.0,-1292.0
1772222632.6467805,14.0,293.0,-1294.0
1772222632.6547804,19.0,294.0,-1291.0
1772222632.6484892,18.0,295.0,-1289.0
1772222632.6564891,17.0,292.0,-1290.0
1772222632.6768773,13.0,295.0,-1293.0
1772222632.6848772,11.0,294.0,-1291.0
1772222632.6780677,13.0,293.0,-1290.0
1772222632.6860676,16.0,296.0,-1294.0
1772222632.6899748,14.0,294.0,-1294.0
1772222632.6979747,12.0,289.0,-1289.0
1772222632.718503,13.0,287.0,-1289.0
1772222632.726503,15.0,291.0,-1293.0
1772222632.718503,11.0,293.0,-1292.0
1772222632.726503,9.0,292.0,-1292.0
1772222632.7195039,13.0,289.0,-1291.0
1772222632.7275038,14.0,290.0,-1289.0
1772222632.7195039,10.0,291.0,-1291.0
1772222632.7275038,11.0,289.0,-1291.0
1772222632.738116,16.0,289.0,-1289.0
1772222632.746116,10.0,291.0,-1287.0
1772222632.7391243,6.0,291.0,-1287.0
1772222632.7471242,4.0,287.0,-1289.0
1772222632.739552,9.0,286.0,-1283.0
1772222632.747552,12.0,284.0,-1279.0
1772222632.7441084,13.0,286.0,-1287.0
1772222632.7521083,12.0,289.0,-1290.0
1772222632.7441084,5.0,295.0,-1287.0
1772222632.7521083,7.0,289.0,-1285.0
1772222632.7456472,9.0,288.0,-1294.0
1772222632.753647,7.0,285.0,-1295.0
1772222632.746656,9.0,287.0,-1290.0
1772222632.7546558,9.0,286.0,-1288.0
1772222632.7588332,6.0,290.0,-1291.0
1772222632.766833,-1.0,291.0,-1289.0
1772222632.7659702,2.0,285.0,-1291.0
1772222632.7739701,5.0,278.0,-1289.0
1772222632.7659702,5.0,283.0,-1289.0
1772222632.7739701,3.0,286.0,-1291.0
1772222632.7679815,6.0,286.0,-1289.0
1772222632.7759814,4.0,282.0,-1285.0
1772222632.7686086,1.0,285.0,-1285.0
1772222632.7766085,2.0,289.0,-1288.0
1772222632.7686086,1.0,278.0,-1293.0
1772222632.7766085,3.0,282.0,-1290.0
1772222632.7731557,3.0,280.0,-1289.0
1772222632.7811556,-1.0,279.0,-1290.0
1772222632.780232,-3.0,281.0,-1291.0
1772222632.7882318,0.0,281.0,-1287.0
1772222632.7914665,-1.0,283.0,-1287.0
1772222632.7994664,-4.0,282.0,-1291.0
1772222632.8015468,-2.0,278.0,-1292.0
1772222632.8095467,-2.0,279.0,-1286.0
1772222632.8164535,-2.0,279.0,-1289.0
1772222632.8244534,-1.0,279.0,-1293.0
1772222632.8340628,-1.0,278.0,-1293.0
1772222632.8420627,-6.0,277.0,-1290.0
1772222632.8340628,-5.0,281.0,-1288.0
1772222632.8420627,-5.0,286.0,-1289.0
1772222632.8354518,-2.0,279.0,-1291.0
1772222632.8434517,3.0,278.0,-1289.0
1772222632.8618455,0.0,279.0,-1287.0
1772222632.8698454,-4.0,279.0,-1289.0
1772222632.8618455,-2.0,280.0,-1290.0
1772222632.8698454,-2.0,283.0,-1292.0
1772222632.870783,3.0,281.0,-1287.0
1772222632.878783,1.0,277.0,-1289.0
1772222632.872874,-2.0,282.0,-1291.0
1772222632.880874,-1.0,288.0,-1289.0
1772222632.872874,3.0,289.0,-1286.0
1772222632.880874,9.0,289.0,-1289.0
1772222632.878761,7.0,285.0,-1292.0
1772222632.886761,8.0,284.0,-1292.0
1772222632.8838592,8.0,287.0,-1289.0
1772222632.891859,7.0,288.0,-1286.0
1772222632.9063582,4.0,286.0,-1287.0
1772222632.9143581,3.0,291.0,-1291.0
1772222632.908422,8.0,293.0,-1289.0
1772222632.916422,5.0,289.0,-1290.0
1772222632.908422,7.0,285.0,-1291.0
1772222632.916422,5.0,286.0,-1293.0
1772222632.9185925,4.0,289.0,-1291.0
1772222632.9265924,10.0,286.0,-1287.0
1772222632.9231822,7.0,288.0,-1289.0
1772222632.9311821,5.0,294.0,-1294.0
1772222632.951989,8.0,291.0,-1292.0
1772222632.9599888,8.0,293.0,-1289.0
1772222632.9636889,9.0,289.0,-1290.0
1772222632.9716887,8.0,287.0,-1295.0
1772222632.9636889,8.0,289.0,-1293.0
1772222632.9716887,9.0,292.0,-1290.0
1772222632.966219,7.0,290.0,-1291.0
1772222632.9742188,9.0,293.0,-1293.0
1772222632.9677756,7.0,293.0,-1291.0
1772222632.9757755,5.0,287.0,-1289.0
1772222632.9733663,8.0,285.0,-1289.0
1772222632.9813662,8.0,288.0,-1292.0
1772222632.993934,5.0,291.0,-1294.0
1772222633.0019338,3.0,292.0,-1291.0
1772222632.9992256,6.0,294.0,-1291.0
1772222633.0072255,8.0,290.0,-1293.0
1772222633.000223,8.0,288.0,-1291.0
1772222633.0082228,7.0,287.0,-1290.0
1772222633.0085216,5.0,289.0,-1288.0
1772222633.0165215,5.0,289.0,-1295.0
1772222633.0115547,4.0,289.0,-1294.0
1772222633.0195546,4.0,285.0,-1293.0
1772222633.0201359,6.0,284.0,-1291.0
1772222633.0281358,4.0,289.0,-1293.0
1772222633.028761,3.0,290.0,-1296.0
1772222633.0367608,0.0,283.0,-1293.0
1772222633.0472703,4.0,285.0,-1291.0
1772222633.0552702,6.0,286.0,-1292.0
1772222633.0637681,0.0,288.0,-1296.0
1772222633.071768,2.0,289.0,-1297.0
1772222633.065787,5.0,292.0,-1294.0
1772222633.073787,3.0,287.0,-1294.0
1772222633.0941856,1.0,282.0,-1295.0
1772222633.1021855,1.0,283.0,-1295.0
1772222633.0941856,0.0,287.0,-1293.0
1772222633.1021855,0.0,288.0,-1293.0
1772222633.0951872,5.0,283.0,-1297.0
1772222633.103187,4.0,282.0,-1297.0
1772222633.0951872,-1.0,284.0,-1293.0
1772222633.103187,0.0,287.0,-1293.0
1772222633.1010382,2.0,285.0,-1293.0
1772222633.109038,0.0,283.0,-1294.0
1772222633.102219,0.0,287.0,-1293.0
1772222633.110219,3.0,291.0,-1295.0
1772222633.108272,5.0,288.0,-1296.0
1772222633.116272,3.0,287.0,-1297.0
1772222633.1163352,3.0,288.0,-1294.0
1772222633.124335,6.0,285.0,-1292.0
1772222633.135973,3.0,287.0,-1293.0
1772222633.1439729,1.0,290.0,-1297.0
1772222633.1374779,2.0,286.0,-1298.0
1772222633.1454778,4.0,287.0,-1293.0
1772222633.140508,3.0,286.0,-1292.0
1772222633.1485078,4.0,290.0,-1296.0
1772222633.149121,4.0,291.0,-1296.0
1772222633.157121,5.0,289.0,-1292.0
1772222633.1584263,13.0,288.0,-1292.0
1772222633.1664262,7.0,288.0,-1298.0
1772222633.189073,1.0,286.0,-1296.0
1772222633.197073,1.0,289.0,-1296.0
1772222633.189073,5.0,289.0,-1295.0
1772222633.197073,9.0,291.0,-1298.0
1772222633.1987896,10.0,294.0,-1297.0
1772222633.2067895,4.0,288.0,-1292.0
1772222633.1999,2.0,292.0,-1294.0
1772222633.2078998,5.0,292.0,-1296.0
1772222633.2049656,10.0,291.0,-1296.0
1772222633.2129655,10.0,292.0,-1294.0
1772222633.2060442,11.0,294.0,-1293.0
1772222633.214044,11.0,296.0,-1294.0
1772222633.232528,9.0,291.0,-1295.0
1772222633.2405279,9.0,295.0,-1296.0
1772222633.234586,10.0,297.0,-1294.0
1772222633.242586,6.0,296.0,-1295.0
1772222633.2562222,8.0,292.0,-1294.0
1772222633.2642221,11.0,294.0,-1291.0
1772222633.2588568,14.0,298.0,-1287.0
1772222633.2668567,14.0,298.0,-1289.0
1772222633.2588568,13.0,293.0,-1290.0
1772222633.2668567,11.0,296.0,-1290.0
1772222633.2620559,7.0,295.0,-1294.0
1772222633.2700558,13.0,295.0,-1295.0
1772222633.2791345,11.0,304.0,-1297.0
1772222633.2871344,7.0,305.0,-1291.0
1772222633.2791345,13.0,298.0,-1289.0
1772222633.2871344,15.0,293.0,-1298.0
1772222633.2806556,11.0,298.0,-1300.0
1772222633.2886555,10.0,298.0,-1299.0
1772222633.3033264,15.0,299.0,-1295.0
1772222633.3113263,12.0,301.0,-1294.0
1772222633.3045497,13.0,300.0,-1296.0
1772222633.3125496,11.0,299.0,-1297.0
1772222633.3301225,10.0,302.0,-1292.0
1772222633.3381224,14.0,298.0,-1293.0
1772222633.3301225,14.0,295.0,-1295.0
1772222633.3381224,16.0,301.0,-1296.0
1772222633.339785,11.0,299.0,-1291.0
1772222633.347785,5.0,294.0,-1292.0
1772222633.341803,6.0,298.0,-1294.0
1772222633.349803,9.0,298.0,-1295.0
1772222633.346345,13.0,297.0,-1292.0
1772222633.3543448,13.0,303.0,-1290.0
1772222633.3483653,10.0,308.0,-1291.0
1772222633.3563652,13.0,298.0,-1295.0
1772222633.349958,9.0,290.0,-1295.0
1772222633.3579578,7.0,295.0,-1290.0
1772222633.366669,9.0,301.0,-1290.0
1772222633.3746688,9.0,301.0,-1293.0
1772222633.3721588,12.0,297.0,-1295.0
1772222633.3801587,8.0,297.0,-1290.0
1772222633.3721588,7.0,298.0,-1284.0
1772222633.3801587,10.0,300.0,-1290.0
1772222633.3823078,8.0,297.0,-1296.0
1772222633.3903077,7.0,301.0,-1291.0
1772222633.3889985,9.0,304.0,-1288.0
1772222633.3969984,10.0,297.0,-1293.0
1772222633.3975773,9.0,294.0,-1295.0
1772222633.4055772,4.0,298.0,-1292.0
1772222633.4230094,9.0,299.0,-1293.0
1772222633.4310093,8.0,300.0,-1296.0
1772222633.425618,8.0,297.0,-1296.0
1772222633.4336178,10.0,297.0,-1295.0
1772222633.425618,8.0,302.0,-1293.0
1772222633.4336178,10.0,304.0,-1293.0
1772222633.4407372,8.0,297.0,-1296.0
1772222633.4487371,7.0,295.0,-1295.0
1772222633.4419808,9.0,295.0,-1289.0
1772222633.4499807,11.0,302.0,-1294.0
1772222633.445011,6.0,301.0,-1296.0
1772222633.4530108,6.0,301.0,-1295.0
1772222633.464382,9.0,299.0,-1292.0
1772222633.4723818,9.0,299.0,-1292.0
1772222633.4663346,7.0,298.0,-1297.0
1772222633.4743345,7.0,297.0,-1296.0
1772222633.4689333,7.0,298.0,-1293.0
1772222633.4769332,8.0,303.0,-1291.0
1772222633.4754894,9.0,302.0,-1295.0
1772222633.4834893,7.0,302.0,-1296.0
1772222633.4877563,9.0,299.0,-1291.0
1772222633.4957561,7.0,298.0,-1289.0
1772222633.4907835,11.0,300.0,-1293.0
1772222633.4987833,10.0,300.0,-1298.0
1772222633.5113926,5.0,297.0,-1297.0
1772222633.5193925,4.0,300.0,-1295.0
1772222633.5128963,6.0,299.0,-1299.0
1772222633.5208962,4.0,298.0,-1299.0
1772222633.5159247,6.0,298.0,-1297.0
1772222633.5239246,8.0,300.0,-1295.0
1772222633.5502083,8.0,301.0,-1295.0
1772222633.5582082,6.0,297.0,-1296.0
1772222633.5617938,5.0,300.0,-1298.0
1772222633.5697937,6.0,297.0,-1296.0
1772222633.562795,8.0,296.0,-1297.0
1772222633.5707948,7.0,298.0,-1299.0
1772222633.563379,6.0,298.0,-1297.0
1772222633.571379,8.0,298.0,-1295.0
1772222633.5689087,10.0,299.0,-1294.0
1772222633.5769086,9.0,298.0,-1298.0
1772222633.5689087,5.0,298.0,-1298.0
1772222633.5769086,3.0,299.0,-1295.0
1772222633.571928,5.0,300.0,-1295.0
1772222633.579928,8.0,298.0,-1299.0
1772222633.580508,10.0,296.0,-1298.0
1772222633.588508,10.0,299.0,-1291.0
1772222633.5896196,15.0,302.0,-1289.0
1772222633.5976195,11.0,299.0,-1300.0
1772222633.6052177,7.0,298.0,-1301.0
1772222633.6132176,10.0,299.0,-1297.0
1772222633.607231,9.0,300.0,-1296.0
1772222633.6152308,10.0,301.0,-1298.0
1772222633.6289935,10.0,298.0,-1299.0
1772222633.6369934,10.0,299.0,-1298.0
1772222633.6289935,11.0,299.0,-1297.0
1772222633.6369934,12.0,300.0,-1300.0
1772222633.6289935,12.0,301.0,-1301.0
1772222633.6369934,13.0,303.0,-1299.0
1772222633.6602519,12.0,304.0,-1296.0
1772222633.6682518,12.0,305.0,-1297.0
1772222633.6612592,14.0,303.0,-1301.0
1772222633.669259,14.0,303.0,-1302.0
1772222633.6766186,16.0,306.0,-1299.0
1772222633.6846185,15.0,307.0,-1297.0
1772222633.6781406,15.0,305.0,-1300.0
1772222633.6861405,14.0,305.0,-1301.0
1772222633.6807427,14.0,306.0,-1298.0
1772222633.6887426,16.0,306.0,-1297.0
1772222633.6833427,18.0,307.0,-1301.0
1772222633.6913426,20.0,308.0,-1302.0
1772222633.7010012,19.0,308.0,-1294.0
1772222633.709001,20.0,308.0,-1293.0
1772222633.7029114,17.0,309.0,-1303.0
1772222633.7109113,16.0,307.0,-1304.0
1772222633.7087178,18.0,306.0,-1300.0
1772222633.7167177,20.0,308.0,-1298.0
1772222633.710241,18.0,308.0,-1301.0
1772222633.718241,18.0,308.0,-1301.0
1772222633.7158103,19.0,308.0,-1300.0
1772222633.7238102,20.0,305.0,-1298.0
1772222633.7265594,21.0,305.0,-1299.0
1772222633.7345593,21.0,307.0,-1301.0
1772222633.7484074,21.0,308.0,-1299.0
1772222633.7564073,21.0,308.0,-1296.0
1772222633.7548387,23.0,309.0,-1298.0
1772222633.7628386,25.0,307.0,-1300.0
1772222633.7548387,21.0,307.0,-1302.0
1772222633.7628386,20.0,309.0,-1297.0
1772222633.7757454,19.0,311.0,-1296.0
1772222633.7837453,20.0,307.0,-1301.0
1772222633.7924557,22.0,304.0,-1300.0
1772222633.8004556,20.0,306.0,-1297.0
1772222633.8031933,20.0,306.0,-1295.0
1772222633.8111932,22.0,305.0,-1295.0
1772222633.8049126,22.0,304.0,-1292.0
1772222633.8129125,21.0,305.0,-1289.0
1772222633.8130794,21.0,307.0,-1284.0
1772222633.8210793,22.0,307.0,-1298.0
1772222633.8147702,23.0,306.0,-1303.0
1772222633.82277,22.0,307.0,-1300.0
1772222633.8178885,22.0,307.0,-1301.0
1772222633.8258884,22.0,308.0,-1304.0
1772222633.819583,22.0,308.0,-1304.0
1772222633.8275828,24.0,309.0,-1298.0
1772222633.819583,26.0,306.0,-1297.0
1772222633.8275828,23.0,307.0,-1299.0
1772222633.8295662,23.0,308.0,-1302.0
1772222633.8375661,24.0,309.0,-1299.0
1772222633.8346357,24.0,309.0,-1299.0
1772222633.8426356,24.0,308.0,-1298.0
1772222633.8630598,24.0,307.0,-1301.0
1772222633.8710597,22.0,306.0,-1300.0
1772222633.8630598,24.0,310.0,-1300.0
1772222633.8710597,24.0,307.0,-1300.0
1772222633.899459,23.0,306.0,-1302.0
1772222633.9074588,23.0,308.0,-1301.0
1772222633.899459,22.0,308.0,-1299.0
1772222633.9074588,23.0,305.0,-1298.0
1772222633.913223,24.0,305.0,-1302.0
1772222633.921223,23.0,305.0,-1302.0
1772222633.913223,23.0,307.0,-1297.0
1772222633.921223,22.0,307.0,-1296.0
1772222633.9446006,22.0,306.0,-1301.0
1772222633.9526005,21.0,304.0,-1303.0
1772222633.9478955,21.0,303.0,-1295.0
1772222633.9558954,23.0,305.0,-1297.0
1772222633.9686103,20.0,304.0,-1294.0
1772222633.9766102,21.0,303.0,-1300.0
1772222633.978509,19.0,302.0,-1300.0
1772222633.9865088,20.0,304.0,-1300.0
1772222633.9786205,21.0,304.0,-1298.0
1772222633.9866204,23.0,302.0,-1299.0
1772222633.9786205,20.0,303.0,-1300.0
1772222633.9866204,19.0,303.0,-1296.0
1772222633.9807591,20.0,302.0,-1296.0
1772222633.988759,19.0,302.0,-1298.0
1772222633.9814534,22.0,302.0,-1299.0
1772222633.9894533,21.0,303.0,-1298.0
1772222633.9814534,20.0,304.0,-1297.0
1772222633.9894533,20.0,306.0,-1304.0
1772222633.9814534,20.0,306.0,-1302.0
1772222633.9894533,21.0,305.0,-1297.0
1772222633.982705,19.0,302.0,-1298.0
1772222633.990705,19.0,302.0,-1302.0
1772222633.982705,18.0,304.0,-1302.0
1772222633.990705,18.0,302.0,-1296.0
1772222633.9873257,21.0,301.0,-1296.0
1772222633.9953256,21.0,303.0,-1300.0
1772222634.025322,19.0,303.0,-1301.0
1772222634.0333219,18.0,305.0,-1299.0
1772222634.0261137,20.0,305.0,-1298.0
1772222634.0341136,21.0,304.0,-1299.0
1772222634.0276856,22.0,304.0,-1299.0
1772222634.0356855,21.0,306.0,-1299.0
1772222634.0292516,19.0,304.0,-1299.0
1772222634.0372515,19.0,304.0,-1299.0
1772222634.030992,18.0,304.0,-1301.0
1772222634.038992,18.0,304.0,-1299.0
1772222634.0355983,19.0,304.0,-1297.0
1772222634.0435982,20.0,305.0,-1298.0
1772222634.0553105,20.0,305.0,-1302.0
1772222634.0633104,19.0,305.0,-1301.0
1772222634.0568323,19.0,304.0,-1300.0
1772222634.0648322,18.0,304.0,-1298.0
1772222634.0598602,20.0,305.0,-1302.0
1772222634.0678601,20.0,305.0,-1299.0
1772222634.0674956,20.0,302.0,-1298.0
1772222634.0754955,19.0,302.0,-1299.0
1772222634.0762937,18.0,304.0,-1303.0
1772222634.0842936,18.0,304.0,-1301.0
1772222634.086315,20.0,303.0,-1300.0
1772222634.0943148,20.0,303.0,-1300.0
1772222634.0909367,19.0,303.0,-1301.0
1772222634.0989366,19.0,304.0,-1303.0
1772222634.1002636,18.0,303.0,-1298.0
1772222634.1082635,18.0,304.0,-1296.0
1772222634.1253104,18.0,305.0,-1299.0
1772222634.1333103,18.0,305.0,-1300.0
1772222634.1269622,20.0,307.0,-1298.0
1772222634.134962,19.0,304.0,-1298.0
1772222634.1269622,17.0,303.0,-1300.0
1772222634.134962,19.0,305.0,-1300.0
1772222634.1480021,20.0,306.0,-1300.0
1772222634.156002,19.0,306.0,-1297.0
1772222634.1491046,20.0,308.0,-1299.0
1772222634.1571045,19.0,306.0,-1305.0
1772222634.1557403,18.0,305.0,-1301.0
1772222634.1637402,18.0,307.0,-1298.0
1772222634.1663227,18.0,307.0,-1299.0
1772222634.1743226,17.0,305.0,-1301.0
1772222634.1683457,19.0,304.0,-1300.0
1772222634.1763456,21.0,305.0,-1300.0
1772222634.1709423,21.0,306.0,-1301.0
1772222634.1789422,19.0,306.0,-1304.0
1772222634.180774,18.0,307.0,-1301.0
1772222634.1887739,17.0,305.0,-1301.0
1772222634.188425,18.0,303.0,-1301.0
1772222634.196425,18.0,304.0,-1302.0
1772222634.2165608,19.0,305.0,-1303.0
1772222634.2245607,20.0,305.0,-1300.0
1772222634.2165608,21.0,305.0,-1301.0
1772222634.2245607,19.0,304.0,-1302.0
1772222634.2232502,20.0,305.0,-1302.0
1772222634.23125,21.0,306.0,-1299.0
1772222634.2232502,19.0,305.0,-1302.0
1772222634.23125,19.0,305.0,-1301.0
1772222634.2573323,19.0,307.0,-1305.0
1772222634.2653322,19.0,306.0,-1302.0
1772222634.2588384,20.0,305.0,-1301.0
1772222634.2668383,19.0,305.0,-1303.0
1772222634.2744682,18.0,305.0,-1303.0
1772222634.282468,18.0,307.0,-1301.0
1772222634.2755675,21.0,307.0,-1301.0
1772222634.2835674,23.0,305.0,-1301.0
1772222634.2836294,23.0,305.0,-1305.0
1772222634.2916293,23.0,308.0,-1304.0
1772222634.2852292,22.0,309.0,-1302.0
1772222634.293229,22.0,310.0,-1302.0
1772222634.2955763,24.0,309.0,-1304.0
1772222634.3035762,23.0,312.0,-1304.0
1772222634.305425,21.0,313.0,-1303.0
1772222634.3134248,23.0,310.0,-1302.0
1772222634.305425,26.0,309.0,-1306.0
1772222634.3134248,25.0,311.0,-1304.0
1772222634.306698,21.0,311.0,-1301.0
1772222634.314698,22.0,309.0,-1298.0
1772222634.3082194,25.0,310.0,-1302.0
1772222634.3162193,22.0,311.0,-1302.0
1772222634.3157868,23.0,311.0,-1299.0
1772222634.3237867,25.0,313.0,-1296.0
1772222634.3233848,25.0,315.0,-1296.0
1772222634.3313847,23.0,319.0,-1301.0
1772222634.33357,25.0,321.0,-1306.0
1772222634.34157,28.0,320.0,-1305.0
1772222634.3530707,29.0,318.0,-1307.0
1772222634.3610706,28.0,318.0,-1309.0
1772222634.369617,31.0,319.0,-1305.0
1772222634.377617,30.0,321.0,-1301.0
1772222634.3716342,28.0,319.0,-1304.0
1772222634.3796341,26.0,319.0,-1307.0
1772222634.4000952,30.0,324.0,-1304.0
1772222634.4080951,31.0,323.0,-1301.0
1772222634.4000952,30.0,319.0,-1302.0
1772222634.4080951,31.0,319.0,-1306.0
1772222634.4000952,33.0,322.0,-1304.0
1772222634.4080951,35.0,326.0,-1298.0
1772222634.406695,37.0,327.0,-1302.0
1772222634.4146948,39.0,328.0,-1304.0
1772222634.406695,38.0,330.0,-1304.0
1772222634.4146948,40.0,329.0,-1303.0
1772222634.4087062,42.0,330.0,-1303.0
1772222634.416706,46.0,334.0,-1305.0
1772222634.412235,46.0,335.0,-1305.0
1772222634.420235,40.0,333.0,-1304.0
1772222634.4193697,35.0,331.0,-1300.0
1772222634.4273696,37.0,337.0,-1302.0
1772222634.4290144,38.0,336.0,-1304.0
1772222634.4370143,40.0,332.0,-1303.0
1772222634.4442358,40.0,331.0,-1299.0
1772222634.4522357,42.0,327.0,-1303.0
1772222634.4462512,40.0,333.0,-1305.0
1772222634.454251,41.0,332.0,-1304.0
1772222634.4512868,41.0,328.0,-1302.0
1772222634.4592867,40.0,325.0,-1302.0
1772222634.460415,37.0,324.0,-1304.0
1772222634.4684148,34.0,324.0,-1302.0
1772222634.492,34.0,327.0,-1302.0
1772222634.5,31.0,326.0,-1301.0
1772222634.4922612,33.0,321.0,-1303.0
1772222634.500261,32.0,320.0,-1305.0
1772222634.5194592,31.0,320.0,-1301.0
1772222634.5274591,30.0,315.0,-1301.0
1772222634.5204709,29.0,312.0,-1305.0
1772222634.5284708,28.0,312.0,-1304.0
1772222634.5432155,25.0,314.0,-1299.0
1772222634.5512154,25.0,316.0,-1301.0
1772222634.5447376,29.0,317.0,-1307.0
1772222634.5527375,28.0,313.0,-1306.0
1772222634.5477626,25.0,306.0,-1302.0
1772222634.5557625,26.0,307.0,-1303.0
1772222634.5492747,29.0,308.0,-1306.0
1772222634.5572746,23.0,308.0,-1305.0
1772222634.5518384,29.0,304.0,-1303.0
1772222634.5598383,22.0,307.0,-1303.0
1772222634.5521119,16.0,305.0,-1302.0
1772222634.5601118,19.0,298.0,-1304.0
1772222634.5521119,19.0,294.0,-1302.0
1772222634.5601118,14.0,293.0,-1298.0
1772222634.555636,14.0,294.0,-1301.0
1772222634.5636358,15.0,296.0,-1303.0
1772222634.5682592,17.0,297.0,-1302.0
1772222634.5762591,14.0,293.0,-1298.0
1772222634.5808215,10.0,289.0,-1301.0
1772222634.5888214,10.0,289.0,-1302.0
1772222634.58575,12.0,290.0,-1299.0
1772222634.59375,11.0,293.0,-1299.0
1772222634.6056652,12.0,292.0,-1300.0
1772222634.613665,9.0,288.0,-1301.0
1772222634.6066709,9.0,286.0,-1302.0
1772222634.6146708,14.0,293.0,-1302.0
1772222634.6331627,12.0,291.0,-1299.0
1772222634.6411626,9.0,290.0,-1301.0
1772222634.6397157,8.0,295.0,-1302.0
1772222634.6477156,8.0,294.0,-1296.0
1772222634.6397157,8.0,289.0,-1297.0
1772222634.6477156,11.0,290.0,-1302.0
1772222634.6397157,12.0,295.0,-1301.0
1772222634.6477156,11.0,298.0,-1299.0
1772222634.6411445,12.0,294.0,-1296.0
1772222634.6491444,14.0,295.0,-1300.0
1772222634.6443188,15.0,298.0,-1303.0
1772222634.6523187,18.0,301.0,-1300.0
1772222634.6538646,16.0,294.0,-1298.0
1772222634.6618645,14.0,290.0,-1297.0
1772222634.67185,12.0,292.0,-1303.0
1772222634.6798499,10.0,299.0,-1303.0
1772222634.6784089,12.0,297.0,-1299.0
1772222634.6864088,7.0,294.0,-1299.0
1772222634.693682,11.0,298.0,-1302.0
1772222634.7016819,12.0,295.0,-1303.0
1772222634.6946955,16.0,299.0,-1299.0
1772222634.7026954,13.0,300.0,-1298.0
1772222634.6960642,12.0,296.0,-1303.0
1772222634.7040641,12.0,295.0,-1300.0
1772222634.7256408,8.0,297.0,-1301.0
1772222634.7336407,12.0,301.0,-1299.0
1772222634.73898,13.0,300.0,-1301.0
1772222634.74698,15.0,302.0,-1305.0
1772222634.7400463,23.0,303.0,-1300.0
1772222634.7480462,27.0,298.0,-1298.0
1772222634.7450898,21.0,304.0,-1303.0
1772222634.7530897,20.0,307.0,-1306.0
1772222634.7461417,28.0,304.0,-1301.0
1772222634.7541416,27.0,308.0,-1298.0
1772222634.747688,24.0,317.0,-1301.0
1772222634.755688,29.0,311.0,-1301.0
1772222634.7508667,31.0,297.0,-1299.0
1772222634.7588665,20.0,305.0,-1297.0
1772222634.7701478,20.0,309.0,-1302.0
1772222634.7781477,23.0,302.0,-1299.0
1772222634.7716734,27.0,310.0,-1303.0
1772222634.7796733,31.0,309.0,-1300.0
1772222634.7806437,27.0,308.0,-1298.0
1772222634.7886436,26.0,305.0,-1300.0
1772222634.7806437,23.0,307.0,-1303.0
1772222634.7886436,18.0,309.0,-1298.0
1772222634.7887418,25.0,304.0,-1301.0
1772222634.7967417,23.0,303.0,-1304.0
1772222634.7965631,24.0,307.0,-1303.0
1772222634.804563,26.0,302.0,-1299.0
1772222634.8215158,26.0,307.0,-1298.0
1772222634.8295157,25.0,307.0,-1303.0
1772222634.8215158,23.0,304.0,-1304.0
1772222634.8295157,26.0,308.0,-1300.0
1772222634.8376286,24.0,307.0,-1300.0
1772222634.8456285,23.0,305.0,-1304.0
1772222634.8380551,23.0,305.0,-1306.0
1772222634.846055,23.0,305.0,-1300.0
1772222634.8470345,21.0,302.0,-1298.0
1772222634.8550344,22.0,301.0,-1300.0
1772222634.8637285,24.0,302.0,-1302.0
1772222634.8717284,24.0,301.0,-1299.0
1772222634.8637285,24.0,300.0,-1296.0
1772222634.8717284,19.0,299.0,-1297.0
1772222634.8657439,20.0,301.0,-1301.0
1772222634.8737438,20.0,302.0,-1305.0
1772222634.870807,20.0,303.0,-1306.0
1772222634.8788068,24.0,305.0,-1307.0
1772222634.8769665,24.0,304.0,-1309.0
1772222634.8849664,23.0,300.0,-1306.0
1772222634.8846912,21.0,300.0,-1304.0
1772222634.8926911,19.0,301.0,-1304.0
1772222634.8923204,21.0,301.0,-1305.0
1772222634.9003203,19.0,299.0,-1306.0
1772222634.9114199,16.0,299.0,-1304.0
1772222634.9194198,20.0,296.0,-1306.0
1772222634.913433,20.0,297.0,-1309.0
1772222634.921433,19.0,297.0,-1309.0
1772222634.9164586,19.0,296.0,-1305.0
1772222634.9244585,21.0,300.0,-1304.0
1772222634.9245384,25.0,300.0,-1305.0
1772222634.9325383,24.0,299.0,-1308.0
1772222634.932144,23.0,301.0,-1304.0
1772222634.9401438,20.0,302.0,-1304.0
1772222634.960205,20.0,303.0,-1307.0
1772222634.968205,20.0,301.0,-1307.0
1772222634.960205,21.0,299.0,-1304.0
1772222634.968205,19.0,297.0,-1304.0
1772222634.9735074,20.0,299.0,-1309.0
1772222634.9815073,19.0,298.0,-1308.0
1772222634.9750347,20.0,298.0,-1308.0
1772222634.9830346,18.0,303.0,-1306.0
1772222634.977019,19.0,303.0,-1303.0
1772222634.985019,20.0,298.0,-1308.0
1772222634.9815812,20.0,298.0,-1310.0
1772222634.989581,18.0,300.0,-1306.0
1772222634.9928768,17.0,302.0,-1304.0
1772222635.0008767,16.0,299.0,-1308.0
1772222635.0044496,14.0,298.0,-1311.0
1772222635.0124495,15.0,299.0,-1307.0
1772222635.010209,15.0,300.0,-1307.0
1772222635.018209,16.0,302.0,-1305.0
1772222635.0117848,17.0,298.0,-1308.0
1772222635.0197847,16.0,295.0,-1309.0
1772222635.022473,16.0,297.0,-1305.0
1772222635.030473,15.0,299.0,-1306.0
1772222635.0278547,14.0,299.0,-1309.0
1772222635.0358546,15.0,296.0,-1308.0
1772222635.0501237,13.0,297.0,-1304.0
1772222635.0581236,14.0,299.0,-1305.0
1772222635.0557203,17.0,299.0,-1307.0
1772222635.0637202,18.0,297.0,-1305.0
1772222635.0557203,13.0,299.0,-1304.0
1772222635.0637202,12.0,298.0,-1304.0
1772222635.0792408,14.0,298.0,-1306.0
1772222635.0872407,15.0,298.0,-1304.0
1772222635.0800295,15.0,297.0,-1302.0
1772222635.0880294,17.0,299.0,-1302.0
1772222635.0995533,16.0,300.0,-1305.0
1772222635.1075532,15.0,299.0,-1305.0
1772222635.1011374,16.0,298.0,-1303.0
1772222635.1091373,18.0,302.0,-1302.0
1772222635.1011374,18.0,303.0,-1303.0
1772222635.1091373,17.0,301.0,-1307.0
1772222635.1044016,16.0,302.0,-1300.0
1772222635.1124015,16.0,302.0,-1299.0
1772222635.1240187,17.0,302.0,-1304.0
1772222635.1320186,15.0,301.0,-1305.0
1772222635.1256838,16.0,303.0,-1304.0
1772222635.1336837,18.0,307.0,-1304.0
1772222635.153269,19.0,308.0,-1305.0
1772222635.161269,18.0,305.0,-1306.0
1772222635.1542766,18.0,302.0,-1303.0
1772222635.1622765,21.0,304.0,-1300.0
1772222635.1890285,21.0,309.0,-1301.0
1772222635.1970284,19.0,310.0,-1305.0
1772222635.1890285,20.0,309.0,-1304.0
1772222635.1970284,20.0,308.0,-1303.0
1772222635.2143722,21.0,308.0,-1303.0
1772222635.222372,22.0,309.0,-1304.0
1772222635.215906,25.0,308.0,-1302.0
1772222635.2239058,25.0,307.0,-1300.0
1772222635.2354543,21.0,310.0,-1304.0
1772222635.2434542,20.0,312.0,-1306.0
1772222635.2364616,24.0,313.0,-1305.0
1772222635.2444615,26.0,314.0,-1303.0
1772222635.2369354,25.0,312.0,-1303.0
1772222635.2449353,25.0,307.0,-1305.0
1772222635.2369354,23.0,309.0,-1305.0
1772222635.2449353,22.0,312.0,-1300.0
1772222635.2369354,26.0,314.0,-1299.0
1772222635.2449353,29.0,316.0,-1304.0
1772222635.2379422,25.0,311.0,-1306.0
1772222635.245942,23.0,309.0,-1301.0
1772222635.238443,24.0,309.0,-1299.0
1772222635.2464428,24.0,309.0,-1304.0
1772222635.238443,24.0,310.0,-1307.0
1772222635.2464428,27.0,312.0,-1304.0
1772222635.2399664,26.0,317.0,-1299.0
1772222635.2479663,26.0,316.0,-1301.0
1772222635.244524,26.0,311.0,-1305.0
1772222635.252524,28.0,313.0,-1303.0
1772222635.2517939,32.0,319.0,-1302.0
1772222635.2597938,33.0,318.0,-1303.0
1772222635.259393,29.0,320.0,-1306.0
1772222635.2673929,31.0,328.0,-1305.0
1772222635.2819734,35.0,328.0,-1301.0
1772222635.2899733,33.0,319.0,-1302.0
1772222635.2835002,33.0,322.0,-1304.0
1772222635.2915,40.0,331.0,-1304.0
1772222635.2850144,38.0,330.0,-1303.0
1772222635.2930143,41.0,325.0,-1303.0
1772222635.318482,41.0,330.0,-1306.0
1772222635.3264818,49.0,340.0,-1305.0
1772222635.3235295,52.0,338.0,-1302.0
1772222635.3315294,43.0,347.0,-1301.0
1772222635.3371727,45.0,342.0,-1306.0
1772222635.3451726,43.0,333.0,-1308.0
1772222635.3391845,43.0,332.0,-1304.0
1772222635.3471844,40.0,336.0,-1302.0
1772222635.3407004,33.0,334.0,-1304.0
1772222635.3487003,36.0,341.0,-1311.0
1772222635.3427784,38.0,345.0,-1308.0
1772222635.3507783,29.0,340.0,-1307.0
1772222635.344295,29.0,343.0,-1308.0
1772222635.352295,36.0,339.0,-1309.0
1772222635.3473134,37.0,326.0,-1306.0
1772222635.3553133,27.0,325.0,-1302.0
1772222635.3563633,20.0,325.0,-1306.0
1772222635.3643632,20.0,324.0,-1309.0
1772222635.3748217,14.0,316.0,-1308.0
1772222635.3828216,11.0,315.0,-1304.0
1772222635.3763402,6.0,325.0,-1304.0
1772222635.38434,2.0,312.0,-1307.0
1772222635.3808668,22.0,309.0,-1306.0
1772222635.3888667,21.0,327.0,-1303.0
1772222635.389434,22.0,333.0,-1301.0
1772222635.397434,18.0,331.0,-1302.0
1772222635.397013,11.0,334.0,-1302.0
1772222635.4050128,11.0,330.0,-1302.0
1772222635.404137,24.0,329.0,-1301.0
1772222635.4121368,29.0,338.0,-1305.0
1772222635.4297552,37.0,339.0,-1307.0
1772222635.437755,41.0,338.0,-1306.0
1772222635.4308488,41.0,334.0,-1305.0
1772222635.4388487,40.0,334.0,-1307.0
1772222635.4464483,38.0,341.0,-1308.0
1772222635.4544482,37.0,337.0,-1305.0
1772222635.4481618,31.0,327.0,-1304.0
1772222635.4561617,30.0,326.0,-1304.0
1772222635.4513426,31.0,331.0,-1305.0
1772222635.4593425,32.0,332.0,-1306.0
1772222635.4681857,34.0,325.0,-1304.0
1772222635.4761856,28.0,326.0,-1304.0
1772222635.469816,32.0,327.0,-1305.0
1772222635.4778159,31.0,329.0,-1305.0
1772222635.4705384,33.0,325.0,-1302.0
1772222635.4785383,32.0,326.0,-1304.0
1772222635.481114,28.0,327.0,-1307.0
1772222635.4891138,25.0,327.0,-1305.0
1772222635.4846237,25.0,326.0,-1302.0
1772222635.4926236,28.0,324.0,-1304.0
1772222635.4943757,26.0,322.0,-1307.0
1772222635.5023756,26.0,322.0,-1305.0
1772222635.5056198,24.0,322.0,-1302.0
1772222635.5136197,26.0,320.0,-1306.0
1772222635.515484,29.0,320.0,-1306.0
1772222635.523484,27.0,322.0,-1307.0
1772222635.5174935,26.0,325.0,-1306.0
1772222635.5254934,23.0,324.0,-1306.0
1772222635.5255487,23.0,322.0,-1307.0
1772222635.5335486,23.0,318.0,-1309.0
1772222635.5616298,25.0,319.0,-1305.0
1772222635.5696297,26.0,320.0,-1304.0
1772222635.5616298,26.0,321.0,-1307.0
1772222635.5696297,25.0,323.0,-1310.0
1772222635.56773,25.0,323.0,-1305.0
1772222635.5757298,25.0,322.0,-1304.0
1772222635.5712972,25.0,323.0,-1304.0
1772222635.579297,25.0,322.0,-1308.0
1772222635.5717065,24.0,320.0,-1307.0
1772222635.5797064,24.0,319.0,-1306.0
1772222635.5732455,24.0,321.0,-1307.0
1772222635.5812454,24.0,321.0,-1308.0
1772222635.5845044,23.0,320.0,-1306.0
1772222635.5925043,21.0,317.0,-1301.0
1772222635.588095,21.0,316.0,-1304.0
1772222635.5960948,24.0,318.0,-1308.0
1772222635.6074126,22.0,316.0,-1304.0
1772222635.6154125,19.0,318.0,-1300.0
1772222635.6089368,20.0,318.0,-1301.0
1772222635.6169367,21.0,315.0,-1303.0
1772222635.6109896,20.0,316.0,-1306.0
1772222635.6189895,19.0,314.0,-1303.0
1772222635.62034,18.0,315.0,-1301.0
1772222635.62834,15.0,315.0,-1304.0
1772222635.6275198,13.0,313.0,-1306.0
1772222635.6355197,16.0,307.0,-1301.0
1772222635.6525226,16.0,308.0,-1298.0
1772222635.6605225,14.0,308.0,-1303.0
1772222635.6648507,13.0,312.0,-1307.0
1772222635.6728506,9.0,310.0,-1304.0
1772222635.6664686,7.0,308.0,-1301.0
1772222635.6744685,6.0,307.0,-1303.0
1772222635.6813927,9.0,306.0,-1306.0
1772222635.6893926,7.0,303.0,-1305.0
1772222635.6842995,5.0,304.0,-1303.0
1772222635.6922994,4.0,306.0,-1301.0
1772222635.6998274,6.0,309.0,-1302.0
1772222635.7078273,7.0,304.0,-1304.0
1772222635.6998274,4.0,301.0,-1301.0
1772222635.7078273,5.0,303.0,-1303.0
1772222635.7023532,4.0,306.0,-1306.0
1772222635.7103531,6.0,305.0,-1304.0
1772222635.7027202,8.0,305.0,-1301.0
1772222635.71072,6.0,303.0,-1301.0
1772222635.7072654,5.0,304.0,-1306.0
1772222635.7152653,5.0,304.0,-1307.0
1772222635.716332,7.0,306.0,-1303.0
1772222635.7243319,3.0,307.0,-1304.0
1772222635.7250433,2.0,306.0,-1307.0
1772222635.7330432,3.0,303.0,-1307.0
1772222635.7450125,5.0,301.0,-1304.0
1772222635.7530124,5.0,302.0,-1303.0
1772222635.7465324,5.0,302.0,-1305.0
1772222635.7545323,6.0,303.0,-1306.0
1772222635.7485485,6.0,307.0,-1306.0
1772222635.7565484,5.0,304.0,-1303.0
1772222635.7566218,5.0,306.0,-1305.0
1772222635.7646217,9.0,304.0,-1308.0
1772222635.8058112,8.0,303.0,-1306.0
1772222635.813811,8.0,302.0,-1304.0
1772222635.8084354,7.0,304.0,-1308.0
1772222635.8164353,6.0,303.0,-1309.0
1772222635.8381898,7.0,305.0,-1307.0
1772222635.8461897,7.0,305.0,-1306.0
1772222635.8381898,5.0,306.0,-1305.0
1772222635.8461897,7.0,307.0,-1310.0
1772222635.8422294,10.0,306.0,-1309.0
1772222635.8502293,6.0,303.0,-1305.0
1772222635.843794,7.0,303.0,-1303.0
1772222635.851794,9.0,304.0,-1303.0
1772222635.848366,10.0,307.0,-1306.0
1772222635.856366,10.0,308.0,-1307.0
1772222635.849251,10.0,306.0,-1306.0
1772222635.857251,10.0,306.0,-1310.0
1772222635.849251,8.0,309.0,-1309.0
1772222635.857251,9.0,310.0,-1305.0
1772222635.849251,10.0,308.0,-1305.0
1772222635.857251,13.0,309.0,-1306.0
1772222635.8518052,13.0,310.0,-1309.0
1772222635.859805,9.0,312.0,-1307.0
1772222635.8520472,10.0,308.0,-1305.0
1772222635.860047,12.0,307.0,-1305.0
1772222635.8596358,13.0,312.0,-1306.0
1772222635.8676357,15.0,320.0,-1306.0
1772222635.8694139,14.0,315.0,-1307.0
1772222635.8774137,15.0,311.0,-1308.0
1772222635.8847184,17.0,315.0,-1309.0
1772222635.8927183,18.0,317.0,-1309.0
1772222635.9154418,21.0,321.0,-1306.0
1772222635.9234416,21.0,324.0,-1306.0
1772222635.9169285,19.0,330.0,-1307.0
1772222635.9249284,24.0,329.0,-1306.0
1772222635.9255543,27.0,328.0,-1305.0
1772222635.9335542,27.0,329.0,-1307.0
1772222635.9335418,25.0,333.0,-1308.0
1772222635.9415417,25.0,337.0,-1309.0
1772222635.9383097,27.0,341.0,-1304.0
1772222635.9463096,31.0,343.0,-1306.0
1772222635.9383097,36.0,345.0,-1307.0
1772222635.9463096,36.0,343.0,-1306.0
1772222635.939319,35.0,345.0,-1305.0
1772222635.9473188,34.0,346.0,-1304.0
1772222635.9398444,38.0,345.0,-1306.0
1772222635.9478443,35.0,346.0,-1307.0
1772222635.9474695,34.0,348.0,-1302.0
1772222635.9554694,40.0,349.0,-1301.0
1772222635.956225,41.0,347.0,-1303.0
1772222635.9642248,39.0,346.0,-1304.0
1772222635.964378,42.0,353.0,-1307.0
1772222635.972378,44.0,353.0,-1307.0
1772222635.9708903,38.0,348.0,-1309.0
1772222635.9788902,42.0,350.0,-1315.0
1772222636.0037622,44.0,350.0,-1312.0
1772222636.0117621,43.0,349.0,-1310.0
1772222636.0239618,45.0,352.0,-1310.0
1772222636.0319617,47.0,351.0,-1308.0
1772222636.0252728,50.0,346.0,-1309.0
1772222636.0332727,46.0,351.0,-1305.0
1772222636.044747,45.0,355.0,-1298.0
1772222636.052747,46.0,354.0,-1309.0
1772222636.0451016,47.0,348.0,-1312.0
1772222636.0531015,45.0,347.0,-1311.0
1772222636.0496316,48.0,347.0,-1308.0
1772222636.0576315,47.0,347.0,-1310.0
1772222636.078544,46.0,346.0,-1312.0
1772222636.0865438,46.0,347.0,-1307.0
1772222636.078544,45.0,353.0,-1307.0
1772222636.0865438,51.0,356.0,-1310.0
1772222636.078544,51.0,347.0,-1311.0
1772222636.0865438,49.0,344.0,-1308.0
1772222636.0938356,48.0,345.0,-1307.0
1772222636.1018355,49.0,346.0,-1309.0
1772222636.094207,45.0,348.0,-1310.0
1772222636.102207,47.0,350.0,-1307.0
1772222636.094207,45.0,348.0,-1308.0
1772222636.102207,46.0,346.0,-1307.0
1772222636.0952077,48.0,347.0,-1309.0
1772222636.1032076,49.0,349.0,-1308.0
1772222636.0952077,53.0,347.0,-1306.0
1772222636.1032076,50.0,346.0,-1304.0
1772222636.097141,46.0,345.0,-1307.0
1772222636.105141,40.0,336.0,-1308.0
1772222636.1291404,38.0,338.0,-1309.0
1772222636.1371403,39.0,339.0,-1307.0
1772222636.1292233,39.0,335.0,-1305.0
1772222636.1372232,40.0,340.0,-1309.0
1772222636.148457,38.0,337.0,-1306.0
1772222636.156457,36.0,328.0,-1305.0
1772222636.1494625,33.0,326.0,-1310.0
1772222636.1574624,30.0,335.0,-1309.0
1772222636.1690848,28.0,332.0,-1309.0
1772222636.1770847,26.0,329.0,-1307.0
1772222636.1690848,28.0,328.0,-1309.0
1772222636.1770847,29.0,326.0,-1312.0
1772222636.170332,29.0,324.0,-1309.0
1772222636.1783319,28.0,319.0,-1305.0
1772222636.170332,25.0,319.0,-1308.0
1772222636.1783319,24.0,319.0,-1311.0
1772222636.170332,25.0,317.0,-1309.0
1772222636.1783319,29.0,316.0,-1305.0
1772222636.1723437,27.0,315.0,-1309.0
1772222636.1803436,24.0,315.0,-1310.0
1772222636.1804147,20.0,314.0,-1310.0
1772222636.1884146,18.0,312.0,-1309.0
1772222636.1891596,19.0,313.0,-1310.0
1772222636.1971595,26.0,314.0,-1310.0
1772222636.1964922,24.0,310.0,-1311.0
1772222636.204492,23.0,313.0,-1308.0
1772222636.2161636,24.0,314.0,-1306.0
1772222636.2241635,24.0,313.0,-1307.0
1772222636.219431,20.0,312.0,-1308.0
1772222636.2274308,18.0,314.0,-1305.0
1772222636.2201846,19.0,311.0,-1307.0
1772222636.2281845,19.0,308.0,-1312.0
1772222636.2299058,17.0,303.0,-1313.0
1772222636.2379057,19.0,304.0,-1307.0
1772222636.262677,15.0,307.0,-1307.0
1772222636.2706769,9.0,302.0,-1310.0
1772222636.264219,11.0,301.0,-1310.0
1772222636.272219,13.0,303.0,-1308.0
1772222636.2901602,13.0,303.0,-1308.0
1772222636.29816,15.0,300.0,-1307.0
1772222636.2901602,14.0,300.0,-1308.0
1772222636.29816,14.0,303.0,-1309.0
1772222636.3002844,16.0,307.0,-1307.0
1772222636.3082843,18.0,304.0,-1307.0
1772222636.30194,14.0,301.0,-1311.0
1772222636.3099399,14.0,305.0,-1311.0
1772222636.3132124,19.0,307.0,-1308.0
1772222636.3212123,18.0,307.0,-1306.0
1772222636.3132124,16.0,309.0,-1308.0
1772222636.3212123,18.0,309.0,-1308.0
1772222636.3257523,17.0,304.0,-1302.0
1772222636.3337522,16.0,302.0,-1307.0
1772222636.325904,18.0,305.0,-1311.0
1772222636.3339038,18.0,305.0,-1306.0
1772222636.325904,18.0,307.0,-1303.0
1772222636.3339038,18.0,308.0,-1306.0
1772222636.3279269,20.0,307.0,-1309.0
1772222636.3359268,21.0,306.0,-1308.0
1772222636.3324952,19.0,305.0,-1306.0
1772222636.340495,17.0,304.0,-1306.0
1772222636.3406055,21.0,305.0,-1306.0
1772222636.3486054,20.0,306.0,-1307.0
1772222636.3498108,15.0,305.0,-1304.0
1772222636.3578107,17.0,307.0,-1304.0
1772222636.3776112,17.0,308.0,-1306.0
1772222636.385611,17.0,304.0,-1306.0
1772222636.3779755,19.0,307.0,-1303.0
1772222636.3859754,19.0,306.0,-1302.0
1772222636.4060545,18.0,306.0,-1303.0
1772222636.4140544,19.0,306.0,-1307.0
1772222636.4181728,20.0,307.0,-1306.0
1772222636.4261727,21.0,307.0,-1305.0
1772222636.4181728,21.0,307.0,-1304.0
1772222636.4261727,17.0,304.0,-1305.0
1772222636.4181728,17.0,307.0,-1305.0
1772222636.4261727,21.0,308.0,-1304.0
1772222636.4191818,22.0,305.0,-1303.0
1772222636.4271817,20.0,308.0,-1304.0
1772222636.4591591,20.0,308.0,-1306.0
1772222636.467159,18.0,304.0,-1304.0
1772222636.4652178,16.0,303.0,-1304.0
1772222636.4732177,17.0,304.0,-1307.0
1772222636.4697857,17.0,307.0,-1308.0
1772222636.4777856,17.0,306.0,-1304.0
1772222636.5062745,18.0,306.0,-1301.0
1772222636.5142744,19.0,310.0,-1301.0
1772222636.511439,20.0,306.0,-1308.0
1772222636.519439,19.0,303.0,-1305.0
1772222636.51297,18.0,303.0,-1303.0
1772222636.5209699,13.0,302.0,-1304.0
1772222636.51297,16.0,301.0,-1305.0
1772222636.5209699,17.0,302.0,-1302.0
1772222636.5139823,17.0,305.0,-1302.0
1772222636.5219822,19.0,309.0,-1302.0
1772222636.514496,18.0,308.0,-1303.0
1772222636.522496,18.0,306.0,-1303.0
1772222636.5160291,19.0,306.0,-1304.0
1772222636.524029,19.0,308.0,-1305.0
1772222636.5160291,19.0,309.0,-1306.0
1772222636.524029,19.0,308.0,-1303.0
1772222636.5170405,18.0,307.0,-1305.0
1772222636.5250404,16.0,307.0,-1304.0
1772222636.5175514,15.0,308.0,-1304.0
1772222636.5255513,16.0,309.0,-1308.0
1772222636.5190814,17.0,304.0,-1303.0
1772222636.5270813,16.0,303.0,-1299.0
1772222636.523632,15.0,304.0,-1303.0
1772222636.531632,13.0,302.0,-1303.0
1772222636.5337353,12.0,299.0,-1300.0
1772222636.5417352,9.0,299.0,-1300.0
1772222636.5559318,9.0,301.0,-1304.0
1772222636.5639317,7.0,300.0,-1306.0
1772222636.5574937,5.0,300.0,-1306.0
1772222636.5654936,4.0,297.0,-1307.0
1772222636.5582342,4.0,293.0,-1308.0
1772222636.566234,2.0,293.0,-1308.0
1772222636.5678725,1.0,295.0,-1308.0
1772222636.5758724,0.0,294.0,-1307.0
1772222636.5709326,1.0,294.0,-1306.0
1772222636.5789325,0.0,295.0,-1309.0
1772222636.5805855,-2.0,296.0,-1304.0
1772222636.5885854,-2.0,293.0,-1302.0
1772222636.6004705,-4.0,291.0,-1304.0
1772222636.6084704,-4.0,290.0,-1307.0
1772222636.6147814,-4.0,289.0,-1304.0
1772222636.6227813,-4.0,290.0,-1303.0
1772222636.6147814,-7.0,291.0,-1303.0
1772222636.6227813,-6.0,291.0,-1308.0
1772222636.628096,-8.0,287.0,-1307.0
1772222636.636096,-12.0,288.0,-1305.0
1772222636.6296206,-10.0,288.0,-1304.0
1772222636.6376204,-9.0,285.0,-1305.0
1772222636.6296206,-9.0,284.0,-1307.0
1772222636.6376204,-9.0,286.0,-1307.0
1772222636.6545658,-10.0,286.0,-1304.0
1772222636.6625657,-9.0,284.0,-1304.0
1772222636.6545658,-12.0,283.0,-1307.0
1772222636.6625657,-13.0,282.0,-1307.0
1772222636.6623137,-12.0,282.0,-1304.0
1772222636.6703136,-12.0,284.0,-1304.0
1772222636.6634998,-12.0,284.0,-1307.0
1772222636.6714997,-13.0,284.0,-1307.0
1772222636.6695628,-14.0,284.0,-1303.0
1772222636.6775627,-11.0,283.0,-1305.0
1772222636.6887863,-13.0,280.0,-1310.0
1772222636.6967862,-14.0,280.0,-1306.0
1772222636.7009022,-12.0,282.0,-1302.0
1772222636.7089021,-13.0,284.0,-1303.0
1772222636.7089562,-12.0,285.0,-1307.0
1772222636.7169561,-11.0,283.0,-1305.0
1772222636.7089562,-10.0,283.0,-1305.0
1772222636.7169561,-12.0,281.0,-1302.0
1772222636.7447724,-11.0,282.0,-1303.0
1772222636.7527723,-7.0,282.0,-1306.0
1772222636.7447724,-8.0,285.0,-1304.0
1772222636.7527723,-13.0,284.0,-1305.0
1772222636.7462957,-13.0,284.0,-1305.0
1772222636.7542956,-13.0,284.0,-1306.0
1772222636.7462957,-14.0,282.0,-1302.0
1772222636.7542956,-13.0,281.0,-1303.0
1772222636.7473037,-12.0,281.0,-1305.0
1772222636.7553036,-15.0,279.0,-1305.0
1772222636.7489038,-14.0,279.0,-1305.0
1772222636.7569036,-16.0,281.0,-1303.0
1772222636.7601967,-15.0,281.0,-1303.0
1772222636.7681966,-15.0,276.0,-1306.0
1772222636.7632554,-18.0,275.0,-1306.0
1772222636.7712553,-16.0,279.0,-1303.0
1772222636.7724693,-20.0,273.0,-1303.0
1772222636.7804692,-23.0,272.0,-1306.0
1772222636.7932189,-23.0,274.0,-1303.0
1772222636.8012187,-21.0,273.0,-1303.0
1772222636.7987556,-22.0,272.0,-1305.0
1772222636.8067555,-22.0,270.0,-1305.0
1772222636.7987556,-23.0,269.0,-1305.0
1772222636.8067555,-24.0,269.0,-1299.0
1772222636.8142908,-21.0,268.0,-1299.0
1772222636.8222907,-23.0,269.0,-1304.0
1772222636.818264,-25.0,270.0,-1305.0
1772222636.826264,-24.0,269.0,-1302.0
1772222636.8414915,-23.0,270.0,-1300.0
1772222636.8494914,-23.0,270.0,-1304.0
1772222636.8414915,-20.0,267.0,-1306.0
1772222636.8494914,-25.0,268.0,-1305.0
1772222636.8414915,-25.0,267.0,-1303.0
1772222636.8494914,-23.0,267.0,-1305.0
1772222636.8795736,-24.0,266.0,-1306.0
1772222636.8875735,-24.0,265.0,-1302.0
1772222636.8851001,-26.0,267.0,-1301.0
1772222636.8931,-23.0,267.0,-1304.0
1772222636.8851001,-21.0,267.0,-1306.0
1772222636.8931,-23.0,271.0,-1304.0
1772222636.9018078,-21.0,278.0,-1301.0
1772222636.9098077,-20.0,274.0,-1302.0
1772222636.9028096,-22.0,270.0,-1305.0
1772222636.9108095,-17.0,270.0,-1303.0
1772222636.903323,-14.0,269.0,-1304.0
1772222636.9113228,-16.0,272.0,-1301.0
1772222636.9041111,-21.0,272.0,-1305.0
1772222636.912111,-22.0,272.0,-1304.0
1772222636.9068515,-18.0,272.0,-1300.0
1772222636.9148514,-19.0,267.0,-1298.0
1772222636.9256053,-22.0,271.0,-1304.0
1772222636.9336052,-19.0,269.0,-1303.0
1772222636.930677,-17.0,271.0,-1299.0
1772222636.9386768,-17.0,272.0,-1298.0
1772222636.9467416,-17.0,273.0,-1302.0
1772222636.9547415,-19.0,268.0,-1302.0
1772222636.9477415,-20.0,269.0,-1299.0
1772222636.9557414,-17.0,269.0,-1302.0
1772222636.9569046,-14.0,270.0,-1306.0
1772222636.9649045,-16.0,267.0,-1304.0
1772222636.9756896,-21.0,265.0,-1303.0
1772222636.9836895,-19.0,275.0,-1302.0
1772222636.9756896,-20.0,271.0,-1303.0
1772222636.9836895,-17.0,263.0,-1306.0
1772222636.9772542,-18.0,268.0,-1304.0
1772222636.985254,-17.0,281.0,-1300.0
1772222636.9889426,-6.0,276.0,-1300.0
1772222636.9969425,-7.0,268.0,-1305.0
1772222636.9910367,-13.0,272.0,-1304.0
1772222636.9990366,-18.0,278.0,-1300.0
1772222636.9936502,-18.0,278.0,-1299.0
1772222637.00165,-16.0,276.0,-1308.0
1772222636.9972768,-8.0,275.0,-1305.0
1772222637.0052767,-14.0,278.0,-1301.0
1772222637.0033503,-16.0,275.0,-1301.0
1772222637.0113502,-17.0,273.0,-1302.0
1772222637.020118,-21.0,287.0,-1302.0
1772222637.028118,-10.0,289.0,-1302.0
1772222637.0325003,-11.0,281.0,-1302.0
1772222637.0405002,-12.0,277.0,-1303.0
1772222637.0436451,-11.0,279.0,-1306.0
1772222637.051645,-2.0,279.0,-1300.0
1772222637.04465,-11.0,279.0,-1296.0
1772222637.05265,-16.0,279.0,-1303.0
1772222637.0603566,-13.0,276.0,-1305.0
1772222637.0683565,-16.0,278.0,-1301.0
1772222637.0792491,-14.0,277.0,-1299.0
1772222637.087249,-14.0,274.0,-1301.0
1772222637.0803604,-16.0,275.0,-1305.0
1772222637.0883603,-18.0,279.0,-1301.0
1772222637.081885,-19.0,284.0,-1299.0
1772222637.089885,-18.0,279.0,-1300.0
1772222637.1219082,-17.0,283.0,-1304.0
1772222637.129908,-12.0,277.0,-1302.0
1772222637.1219082,-13.0,265.0,-1301.0
1772222637.129908,-21.0,268.0,-1301.0
1772222637.1335196,-23.0,270.0,-1298.0
1772222637.1415195,-24.0,281.0,-1302.0
1772222637.1351087,-21.0,276.0,-1301.0
1772222637.1431086,-18.0,269.0,-1299.0
1772222637.1676428,-22.0,265.0,-1303.0
1772222637.1756427,-20.0,268.0,-1301.0
1772222637.1676428,-20.0,270.0,-1299.0
1772222637.1756427,-24.0,269.0,-1296.0
1772222637.1676428,-30.0,263.0,-1301.0
1772222637.1756427,-32.0,268.0,-1302.0
1772222637.1689444,-32.0,269.0,-1298.0
1772222637.1769443,-24.0,264.0,-1296.0
1772222637.1689444,-19.0,265.0,-1299.0
1772222637.1769443,-23.0,268.0,-1299.0
1772222637.170463,-25.0,267.0,-1299.0
1772222637.178463,-23.0,269.0,-1301.0
1772222637.170463,-24.0,268.0,-1303.0
1772222637.178463,-23.0,271.0,-1304.0
1772222637.170463,-21.0,274.0,-1303.0
1772222637.178463,-18.0,273.0,-1303.0
1772222637.1724842,-12.0,273.0,-1306.0
1772222637.180484,-16.0,277.0,-1310.0
1772222637.2135127,-18.0,281.0,-1305.0
1772222637.2215126,-14.0,282.0,-1301.0
1772222637.220144,-7.0,284.0,-1304.0
1772222637.228144,-10.0,291.0,-1307.0
1772222637.2337446,-11.0,294.0,-1303.0
1772222637.2417445,-8.0,286.0,-1302.0
1772222637.2348974,-13.0,282.0,-1300.0
1772222637.2428973,-12.0,282.0,-1304.0
1772222637.2348974,-15.0,284.0,-1303.0
1772222637.2428973,-19.0,286.0,-1301.0
1772222637.2521815,-18.0,280.0,-1302.0
1772222637.2601814,-18.0,284.0,-1303.0
1772222637.2532554,-10.0,282.0,-1299.0
1772222637.2612553,-10.0,284.0,-1296.0
1772222637.258181,-13.0,282.0,-1300.0
1772222637.266181,-13.0,284.0,-1301.0
1772222637.2592676,-13.0,282.0,-1304.0
1772222637.2672675,-7.0,280.0,-1303.0
1772222637.2592676,-1.0,284.0,-1299.0
1772222637.2672675,-2.0,290.0,-1301.0
1772222637.261518,4.0,288.0,-1303.0
1772222637.269518,-2.0,284.0,-1302.0
1772222637.2695847,1.0,290.0,-1299.0
1772222637.2775846,6.0,292.0,-1299.0
1772222637.2751942,4.0,289.0,-1304.0
1772222637.283194,5.0,294.0,-1303.0
1772222637.2868664,10.0,292.0,-1298.0
1772222637.2948663,9.0,288.0,-1301.0
1772222637.3052506,12.0,292.0,-1304.0
1772222637.3132505,18.0,294.0,-1302.0
1772222637.3223886,19.0,295.0,-1297.0
1772222637.3303885,19.0,298.0,-1298.0
1772222637.323186,20.0,297.0,-1301.0
1772222637.3311858,25.0,295.0,-1302.0
1772222637.3462627,29.0,296.0,-1300.0
1772222637.3542626,27.0,297.0,-1300.0
1772222637.3462627,24.0,295.0,-1304.0
1772222637.3542626,23.0,297.0,-1300.0
1772222637.3476841,23.0,299.0,-1294.0
1772222637.355684,21.0,292.0,-1294.0
1772222637.3476841,19.0,285.0,-1300.0
1772222637.355684,18.0,287.0,-1301.0
1772222637.34923,18.0,298.0,-1299.0
1772222637.35723,16.0,289.0,-1297.0
1772222637.35733,11.0,282.0,-1300.0
1772222637.36533,12.0,285.0,-1301.0
1772222637.3650181,14.0,288.0,-1300.0
1772222637.373018,15.0,289.0,-1294.0
1772222637.37122,17.0,292.0,-1296.0
1772222637.37922,21.0,293.0,-1301.0
1772222637.4056046,21.0,295.0,-1297.0
1772222637.4136045,16.0,297.0,-1293.0
1772222637.4059403,16.0,294.0,-1296.0
1772222637.4139402,18.0,296.0,-1302.0
1772222637.4059403,23.0,300.0,-1301.0
1772222637.4139402,25.0,298.0,-1296.0
1772222637.407982,25.0,295.0,-1296.0
1772222637.415982,21.0,297.0,-1301.0
1772222637.4116104,20.0,302.0,-1303.0
1772222637.4196103,22.0,299.0,-1300.0
1772222637.449213,27.0,298.0,-1300.0
1772222637.457213,24.0,300.0,-1304.0
1772222637.449213,20.0,300.0,-1305.0
1772222637.457213,23.0,302.0,-1301.0
1772222637.4532495,26.0,304.0,-1303.0
1772222637.4612494,25.0,303.0,-1305.0
1772222637.4548066,29.0,302.0,-1304.0
1772222637.4628065,28.0,302.0,-1304.0
1772222637.4563172,27.0,302.0,-1302.0
1772222637.464317,26.0,304.0,-1303.0
1772222637.4608517,24.0,304.0,-1309.0
1772222637.4688516,25.0,301.0,-1306.0
1772222637.4892302,27.0,301.0,-1305.0
1772222637.49723,22.0,299.0,-1308.0
1772222637.4892302,16.0,295.0,-1311.0
1772222637.49723,21.0,295.0,-1308.0
1772222637.4907362,22.0,293.0,-1305.0
1772222637.4987361,11.0,289.0,-1306.0
1772222637.4952772,7.0,292.0,-1310.0
1772222637.503277,7.0,293.0,-1309.0
1772222637.5003238,6.0,291.0,-1306.0
1772222637.5083237,14.0,283.0,-1305.0
1772222637.5089245,9.0,282.0,-1309.0
1772222637.5169244,1.0,279.0,-1310.0
1772222637.5165746,1.0,280.0,-1305.0
1772222637.5245745,10.0,290.0,-1302.0
1772222637.5444045,13.0,290.0,-1302.0
1772222637.5524044,10.0,285.0,-1304.0
1772222637.5464058,9.0,281.0,-1306.0
1772222637.5544057,4.0,280.0,-1301.0
1772222637.5584717,2.0,283.0,-1306.0
1772222637.5664716,8.0,285.0,-1306.0
1772222637.5584717,5.0,284.0,-1303.0
1772222637.5664716,9.0,280.0,-1302.0
1772222637.5600126,9.0,280.0,-1302.0
1772222637.5680125,2.0,278.0,-1302.0
1772222637.5893714,-2.0,272.0,-1299.0
1772222637.5973713,0.0,276.0,-1300.0
1772222637.591398,4.0,279.0,-1301.0
1772222637.599398,9.0,279.0,-1306.0
1772222637.5921311,10.0,277.0,-1302.0
1772222637.600131,5.0,273.0,-1300.0
1772222637.5921311,4.0,276.0,-1302.0
1772222637.600131,3.0,280.0,-1303.0
1772222637.596674,7.0,282.0,-1299.0
1772222637.6046739,14.0,284.0,-1299.0
1772222637.605763,16.0,286.0,-1300.0
1772222637.6137629,20.0,288.0,-1304.0
1772222637.6112487,22.0,291.0,-1305.0
1772222637.6192486,23.0,295.0,-1303.0
1772222637.6304233,21.0,295.0,-1300.0
1772222637.6384232,28.0,293.0,-1303.0
1772222637.6370633,33.0,290.0,-1297.0
1772222637.6450632,25.0,298.0,-1301.0
1772222637.6370633,27.0,300.0,-1304.0
1772222637.6450632,30.0,296.0,-1305.0
1772222637.6441183,35.0,296.0,-1308.0
1772222637.6521182,37.0,298.0,-1304.0
1772222637.6827807,30.0,297.0,-1303.0
1772222637.6907806,28.0,298.0,-1305.0
1772222637.6827807,32.0,299.0,-1307.0
1772222637.6907806,30.0,297.0,-1306.0
1772222637.6841044,29.0,298.0,-1304.0
1772222637.6921043,29.0,301.0,-1306.0
1772222637.6856265,30.0,298.0,-1308.0
1772222637.6936264,32.0,296.0,-1307.0
1772222637.6856265,29.0,299.0,-1305.0
1772222637.6936264,30.0,297.0,-1304.0
1772222637.735022,32.0,295.0,-1308.0
1772222637.743022,35.0,300.0,-1305.0
1772222637.735022,35.0,303.0,-1306.0
1772222637.743022,29.0,302.0,-1308.0
1772222637.7619364,29.0,296.0,-1308.0
1772222637.7699363,29.0,295.0,-1305.0
1772222637.7692306,28.0,298.0,-1302.0
1772222637.7772305,30.0,298.0,-1303.0
1772222637.7699904,28.0,295.0,-1305.0
1772222637.7779903,28.0,291.0,-1303.0
1772222637.7744446,26.0,298.0,-1295.0
1772222637.7824445,26.0,298.0,-1297.0
1772222637.7759538,27.0,294.0,-1300.0
1772222637.7839537,29.0,293.0,-1298.0
1772222637.7820067,26.0,295.0,-1293.0
1772222637.7900066,28.0,295.0,-1290.0
1772222637.7820067,32.0,295.0,-1293.0
1772222637.7900066,29.0,298.0,-1298.0
1772222637.7845435,22.0,293.0,-1299.0
1772222637.7925434,19.0,288.0,-1298.0
1772222637.784889,22.0,290.0,-1298.0
1772222637.7928889,24.0,293.0,-1300.0
1772222637.784889,25.0,293.0,-1297.0
1772222637.7928889,23.0,294.0,-1293.0
1772222637.7889187,25.0,294.0,-1292.0
1772222637.7969186,26.0,291.0,-1296.0
1772222637.7965105,24.0,293.0,-1292.0
1772222637.8045104,27.0,295.0,-1291.0
1772222637.8301878,28.0,296.0,-1291.0
1772222637.8381877,29.0,298.0,-1291.0
1772222637.8314369,28.0,299.0,-1292.0
1772222637.8394368,27.0,296.0,-1290.0
1772222637.8329568,31.0,292.0,-1291.0
1772222637.8409567,29.0,292.0,-1296.0
1772222637.8339677,26.0,291.0,-1294.0
1772222637.8419676,25.0,292.0,-1291.0
1772222637.8357713,29.0,293.0,-1290.0
1772222637.8437712,27.0,290.0,-1291.0
1772222637.844912,23.0,290.0,-1295.0
1772222637.852912,22.0,290.0,-1290.0
1772222637.872728,20.0,287.0,-1288.0
1772222637.880728,19.0,289.0,-1292.0
1772222637.8748672,22.0,292.0,-1294.0
1772222637.882867,17.0,288.0,-1289.0
1772222637.8748672,21.0,286.0,-1285.0
1772222637.882867,21.0,288.0,-1289.0
1772222637.877394,19.0,287.0,-1293.0
1772222637.8853939,23.0,288.0,-1291.0
1772222637.9173462,27.0,289.0,-1288.0
1772222637.9253461,16.0,289.0,-1290.0
1772222637.9173462,13.0,290.0,-1295.0
1772222637.9253461,20.0,292.0,-1294.0
1772222637.925563,20.0,287.0,-1288.0
1772222637.933563,20.0,287.0,-1291.0
1772222637.9271464,21.0,290.0,-1295.0
1772222637.9351463,19.0,290.0,-1295.0
1772222637.9297075,20.0,291.0,-1293.0
1772222637.9377074,22.0,293.0,-1293.0
1772222637.9312754,24.0,291.0,-1300.0
1772222637.9392753,24.0,294.0,-1296.0
1772222637.9338253,27.0,296.0,-1287.0
1772222637.9418252,27.0,295.0,-1294.0
1772222637.9424803,24.0,295.0,-1297.0
1772222637.9504802,28.0,298.0,-1301.0
1772222637.9737036,32.0,298.0,-1297.0
1772222637.9817035,25.0,297.0,-1294.0
1772222637.9757166,25.0,300.0,-1298.0
1772222637.9837165,30.0,301.0,-1299.0
1772222637.976465,30.0,295.0,-1295.0
1772222637.984465,32.0,298.0,-1294.0
1772222637.976465,26.0,302.0,-1294.0
1772222637.984465,27.0,304.0,-1297.0
1772222637.9820056,35.0,306.0,-1296.0
1772222637.9900055,36.0,302.0,-1292.0
1772222637.987596,37.0,302.0,-1294.0
1772222637.995596,35.0,308.0,-1297.0
1772222638.0146658,35.0,303.0,-1293.0
1772222638.0226657,29.0,300.0,-1292.0
1772222638.0212607,32.0,301.0,-1293.0
1772222638.0292606,35.0,305.0,-1296.0
1772222638.0237455,38.0,293.0,-1296.0
1772222638.0317454,40.0,296.0,-1292.0
1772222638.0552359,32.0,305.0,-1294.0
1772222638.0632358,29.0,302.0,-1296.0
1772222638.064023,31.0,299.0,-1295.0
1772222638.072023,38.0,300.0,-1296.0
1772222638.0654771,35.0,297.0,-1291.0
1772222638.073477,32.0,298.0,-1297.0
1772222638.0664868,31.0,296.0,-1299.0
1772222638.0744867,34.0,296.0,-1294.0
1772222638.0669851,35.0,303.0,-1291.0
1772222638.074985,37.0,297.0,-1293.0
1772222638.0669851,35.0,296.0,-1295.0
1772222638.074985,29.0,294.0,-1294.0
1772222638.069628,28.0,292.0,-1294.0
1772222638.077628,29.0,286.0,-1296.0
1772222638.1071663,25.0,287.0,-1299.0
1772222638.1151662,23.0,285.0,-1294.0
1772222638.108386,24.0,285.0,-1294.0
1772222638.116386,27.0,285.0,-1296.0
1772222638.108386,22.0,286.0,-1298.0
1772222638.116386,24.0,283.0,-1295.0
1772222638.1109853,25.0,284.0,-1295.0
1772222638.1189852,20.0,284.0,-1295.0
1772222638.1109853,23.0,283.0,-1299.0
1772222638.1189852,21.0,286.0,-1298.0
1772222638.1472168,17.0,289.0,-1294.0
1772222638.1552167,19.0,286.0,-1294.0
1772222638.1536024,24.0,281.0,-1298.0
1772222638.1616023,25.0,283.0,-1302.0
1772222638.1637383,23.0,289.0,-1296.0
1772222638.1717381,19.0,285.0,-1293.0
1772222638.1640594,20.0,281.0,-1297.0
1772222638.1720593,23.0,285.0,-1300.0
1772222638.1671133,22.0,289.0,-1295.0
1772222638.1751132,24.0,287.0,-1290.0
1772222638.1671133,25.0,289.0,-1299.0
1772222638.1751132,26.0,287.0,-1301.0
1772222638.1691477,21.0,286.0,-1297.0
1772222638.1771476,21.0,285.0,-1294.0
1772222638.1706784,23.0,286.0,-1295.0
1772222638.1786783,23.0,290.0,-1297.0
1772222638.1916904,23.0,288.0,-1295.0
1772222638.1996903,25.0,290.0,-1292.0
1772222638.1987994,24.0,291.0,-1297.0
1772222638.2067993,24.0,291.0,-1298.0
1772222638.1987994,23.0,288.0,-1294.0
1772222638.2067993,26.0,288.0,-1293.0
1772222638.20441,26.0,289.0,-1294.0
1772222638.21241,27.0,289.0,-1298.0
1772222638.211978,26.0,289.0,-1297.0
1772222638.2199779,23.0,289.0,-1291.0
1772222638.2293134,22.0,291.0,-1290.0
1772222638.2373133,24.0,286.0,-1293.0
1772222638.2438886,21.0,286.0,-1298.0
1772222638.2518885,22.0,288.0,-1294.0
1772222638.2539804,24.0,287.0,-1293.0
1772222638.2619803,20.0,286.0,-1295.0
1772222638.2550507,20.0,287.0,-1295.0
1772222638.2630506,22.0,290.0,-1292.0
1772222638.292473,25.0,290.0,-1291.0
1772222638.300473,23.0,286.0,-1292.0
1772222638.292473,20.0,285.0,-1293.0
1772222638.300473,23.0,288.0,-1292.0
1772222638.2937446,25.0,290.0,-1289.0
1772222638.3017445,26.0,288.0,-1293.0
1772222638.2937446,25.0,289.0,-1294.0
1772222638.3017445,27.0,291.0,-1291.0
1772222638.295276,29.0,288.0,-1286.0
1772222638.3032758,24.0,286.0,-1291.0
1772222638.295276,23.0,286.0,-1291.0
1772222638.3032758,26.0,288.0,-1291.0
1772222638.302448,23.0,290.0,-1289.0
1772222638.310448,23.0,285.0,-1290.0
1772222638.3076565,26.0,283.0,-1289.0
1772222638.3156564,28.0,286.0,-1286.0
1772222638.3304322,24.0,286.0,-1289.0
1772222638.338432,22.0,286.0,-1288.0
1772222638.3373196,22.0,288.0,-1290.0
1772222638.3453195,20.0,286.0,-1288.0
1772222638.3519928,23.0,281.0,-1287.0
1772222638.3599927,25.0,283.0,-1287.0
1772222638.3536098,28.0,287.0,-1289.0
1772222638.3616097,23.0,283.0,-1291.0
1772222638.3813686,20.0,282.0,-1285.0
1772222638.3893685,20.0,284.0,-1284.0
1772222638.3823786,21.0,285.0,-1286.0
1772222638.3903785,22.0,284.0,-1287.0
1772222638.4036512,25.0,285.0,-1283.0
1772222638.4116511,26.0,288.0,-1282.0
1772222638.4055777,27.0,289.0,-1286.0
1772222638.4135776,30.0,291.0,-1292.0
1772222638.4317288,26.0,289.0,-1289.0
1772222638.4397287,25.0,285.0,-1290.0
1772222638.4317288,29.0,288.0,-1294.0
1772222638.4397287,31.0,289.0,-1295.0
1772222638.4317288,26.0,292.0,-1294.0
1772222638.4397287,24.0,290.0,-1291.0
1772222638.4331124,31.0,293.0,-1291.0
1772222638.4411123,30.0,289.0,-1295.0
1772222638.4400604,27.0,289.0,-1292.0
1772222638.4480603,28.0,291.0,-1290.0
1772222638.4400604,27.0,293.0,-1291.0
1772222638.4480603,27.0,293.0,-1293.0
1772222638.441349,33.0,287.0,-1294.0
1772222638.449349,31.0,289.0,-1294.0
1772222638.441349,24.0,293.0,-1294.0
1772222638.449349,27.0,291.0,-1297.0
1772222638.4443996,30.0,293.0,-1299.0
1772222638.4523995,35.0,293.0,-1296.0
1772222638.4530845,36.0,293.0,-1295.0
1772222638.4610844,33.0,295.0,-1295.0
1772222638.4739313,25.0,296.0,-1297.0
1772222638.4819312,26.0,297.0,-1296.0
1772222638.4827409,31.0,299.0,-1294.0
1772222638.4907408,30.0,295.0,-1297.0
1772222638.4928284,30.0,295.0,-1298.0
1772222638.5008283,32.0,298.0,-1296.0
1772222638.4953816,34.0,298.0,-1294.0
1772222638.5033815,34.0,297.0,-1296.0
1772222638.5194771,32.0,297.0,-1298.0
1772222638.527477,31.0,294.0,-1295.0
1772222638.526972,31.0,296.0,-1293.0
1772222638.534972,30.0,298.0,-1296.0
1772222638.528495,31.0,297.0,-1299.0
1772222638.536495,34.0,296.0,-1299.0
1772222638.528495,33.0,295.0,-1295.0
1772222638.536495,32.0,297.0,-1294.0
1772222638.529939,32.0,298.0,-1298.0
1772222638.5379388,31.0,299.0,-1298.0
1772222638.5314672,30.0,297.0,-1289.0
1772222638.539467,32.0,296.0,-1289.0
1772222638.53916,33.0,295.0,-1296.0
1772222638.54716,30.0,293.0,-1298.0
1772222638.559514,28.0,295.0,-1291.0
1772222638.567514,27.0,294.0,-1292.0
1772222638.56613,30.0,297.0,-1298.0
1772222638.5741298,33.0,294.0,-1298.0
1772222638.56613,31.0,292.0,-1296.0
1772222638.5741298,27.0,292.0,-1292.0
1772222638.5747907,29.0,294.0,-1297.0
1772222638.5827906,29.0,294.0,-1296.0
1772222638.581082,30.0,295.0,-1295.0
1772222638.589082,32.0,294.0,-1295.0
1772222638.6153257,29.0,293.0,-1296.0
1772222638.6233256,27.0,294.0,-1299.0
1772222638.6153257,27.0,295.0,-1299.0
1772222638.6233256,30.0,293.0,-1297.0
1772222638.6281836,29.0,291.0,-1295.0
1772222638.6361835,28.0,292.0,-1302.0
1772222638.6298614,29.0,292.0,-1299.0
1772222638.6378613,29.0,293.0,-1295.0
1772222638.631419,29.0,294.0,-1295.0
1772222638.6394188,27.0,293.0,-1302.0
1772222638.6331618,26.0,295.0,-1301.0
1772222638.6411617,27.0,295.0,-1298.0
1772222638.6617217,28.0,293.0,-1297.0
1772222638.6697216,29.0,292.0,-1299.0
1772222638.6617217,31.0,291.0,-1300.0
1772222638.6697216,28.0,293.0,-1300.0
1772222638.6637564,29.0,293.0,-1297.0
1772222638.6717563,30.0,295.0,-1299.0
1772222638.6645381,27.0,293.0,-1303.0
1772222638.672538,28.0,293.0,-1300.0
1772222638.669317,29.0,295.0,-1297.0
1772222638.677317,29.0,294.0,-1296.0
1772222638.6750016,31.0,294.0,-1301.0
1772222638.6830015,29.0,292.0,-1301.0
1772222638.6848686,26.0,293.0,-1298.0
1772222638.6928685,26.0,296.0,-1301.0
1772222638.7030761,28.0,294.0,-1303.0
1772222638.711076,28.0,294.0,-1297.0
1772222638.709178,29.0,295.0,-1298.0
1772222638.7171779,27.0,294.0,-1302.0
1772222638.729281,30.0,296.0,-1305.0
1772222638.7372808,30.0,294.0,-1302.0
1772222638.7308664,30.0,295.0,-1298.0
1772222638.7388663,31.0,299.0,-1301.0
1772222638.755393,28.0,302.0,-1303.0
1772222638.763393,31.0,299.0,-1302.0
1772222638.755393,32.0,295.0,-1299.0
1772222638.763393,30.0,295.0,-1300.0
1772222638.756399,30.0,294.0,-1303.0
1772222638.7643988,32.0,296.0,-1301.0
1772222638.758425,29.0,299.0,-1299.0
1772222638.766425,30.0,298.0,-1296.0
1772222638.7601345,30.0,296.0,-1300.0
1772222638.7681344,28.0,297.0,-1302.0
1772222638.7631948,30.0,300.0,-1298.0
1772222638.7711947,30.0,304.0,-1297.0
1772222638.7729065,31.0,299.0,-1300.0
1772222638.7809064,29.0,294.0,-1301.0
1772222638.8029923,29.0,294.0,-1303.0
1772222638.8109922,30.0,299.0,-1296.0
1772222638.8045185,32.0,302.0,-1293.0
1772222638.8125184,30.0,300.0,-1300.0
1772222638.8045185,33.0,298.0,-1299.0
1772222638.8125184,31.0,298.0,-1291.0
1772222638.8070579,29.0,294.0,-1294.0
1772222638.8150578,31.0,294.0,-1300.0
1772222638.81122,31.0,299.0,-1296.0
1772222638.8192198,30.0,300.0,-1293.0
1772222638.8209019,27.0,299.0,-1293.0
1772222638.8289018,28.0,296.0,-1299.0
1772222638.8497226,30.0,297.0,-1297.0
1772222638.8577225,30.0,297.0,-1292.0
1772222638.8699884,31.0,297.0,-1291.0
1772222638.8779883,31.0,298.0,-1296.0
1772222638.8707705,31.0,300.0,-1296.0
1772222638.8787704,30.0,302.0,-1292.0
1772222638.8733273,29.0,296.0,-1291.0
1772222638.8813272,29.0,296.0,-1293.0
1772222638.8955905,31.0,298.0,-1294.0
1772222638.9035904,31.0,299.0,-1291.0
1772222638.8963492,29.0,300.0,-1288.0
1772222638.904349,30.0,299.0,-1293.0
1772222638.896593,32.0,300.0,-1295.0
1772222638.904593,29.0,298.0,-1291.0
1772222638.8981183,28.0,298.0,-1289.0
1772222638.9061182,29.0,300.0,-1290.0
1772222638.8981183,33.0,301.0,-1294.0
1772222638.9061182,34.0,299.0,-1293.0
1772222638.9009173,33.0,299.0,-1289.0
1772222638.9089172,31.0,298.0,-1292.0
1772222638.9079292,29.0,299.0,-1295.0
1772222638.915929,30.0,299.0,-1292.0
1772222638.9161856,29.0,300.0,-1290.0
1772222638.9241855,30.0,300.0,-1291.0
1772222638.9405515,33.0,300.0,-1296.0
1772222638.9485514,32.0,301.0,-1294.0
1772222638.9420598,31.0,297.0,-1292.0
1772222638.9500597,32.0,295.0,-1291.0
1772222638.9420598,31.0,298.0,-1294.0
1772222638.9500597,30.0,298.0,-1296.0
1772222638.9879682,30.0,297.0,-1292.0
1772222638.995968,31.0,299.0,-1287.0
1772222638.9879682,32.0,299.0,-1288.0
1772222638.995968,32.0,299.0,-1291.0
1772222639.0008686,31.0,301.0,-1290.0
1772222639.0088685,31.0,301.0,-1289.0
1772222639.0343404,33.0,299.0,-1292.0
1772222639.0423403,32.0,297.0,-1296.0
1772222639.0343404,32.0,299.0,-1295.0
1772222639.0423403,34.0,299.0,-1294.0
1772222639.0819666,34.0,301.0,-1293.0
1772222639.0899665,34.0,301.0,-1295.0
1772222639.0834935,31.0,303.0,-1294.0
1772222639.0914934,31.0,299.0,-1289.0
1772222639.0834935,31.0,298.0,-1292.0
1772222639.0914934,32.0,299.0,-1295.0
1772222639.0847857,33.0,299.0,-1291.0
1772222639.0927856,35.0,303.0,-1289.0
1772222639.0847857,32.0,302.0,-1290.0
1772222639.0927856,32.0,299.0,-1292.0
1772222639.0847857,31.0,297.0,-1291.0
1772222639.0927856,31.0,297.0,-1289.0
1772222639.085792,32.0,299.0,-1290.0
1772222639.093792,33.0,302.0,-1291.0
1772222639.0863338,33.0,302.0,-1291.0
1772222639.0943336,31.0,299.0,-1288.0
1772222639.0863338,31.0,297.0,-1287.0
1772222639.0943336,31.0,300.0,-1289.0
1772222639.0868018,31.0,300.0,-1290.0
1772222639.0948017,33.0,301.0,-1289.0
1772222639.0868018,35.0,303.0,-1286.0
1772222639.0948017,32.0,300.0,-1288.0
1772222639.0878005,31.0,297.0,-1289.0
1772222639.0958004,31.0,296.0,-1286.0
1772222639.0884306,30.0,296.0,-1282.0
1772222639.0964305,31.0,298.0,-1289.0
1772222639.0929823,31.0,298.0,-1292.0
1772222639.1009822,32.0,299.0,-1286.0
1772222639.1015637,34.0,300.0,-1286.0
1772222639.1095636,33.0,301.0,-1285.0
1772222639.1234665,30.0,300.0,-1288.0
1772222639.1314664,29.0,297.0,-1289.0
1772222639.1302564,29.0,297.0,-1284.0
1772222639.1382563,29.0,298.0,-1284.0
1772222639.1317163,31.0,299.0,-1288.0
1772222639.1397161,32.0,299.0,-1290.0
1772222639.1332853,31.0,298.0,-1287.0
1772222639.1412852,31.0,296.0,-1284.0
1772222639.14075,29.0,299.0,-1287.0
1772222639.1487498,29.0,302.0,-1291.0
1772222639.146913,30.0,300.0,-1288.0
1772222639.154913,32.0,301.0,-1286.0
1772222639.1747787,33.0,298.0,-1288.0
1772222639.1827786,33.0,298.0,-1291.0
1772222639.1761558,30.0,298.0,-1288.0
1772222639.1841557,30.0,300.0,-1286.0
1772222639.1952176,31.0,303.0,-1290.0
1772222639.2032175,32.0,302.0,-1290.0
1772222639.1969206,33.0,301.0,-1289.0
1772222639.2049205,32.0,299.0,-1288.0
1772222639.2223475,33.0,298.0,-1290.0
1772222639.2303474,31.0,299.0,-1291.0
1772222639.2223475,30.0,300.0,-1291.0
1772222639.2303474,32.0,301.0,-1287.0
1772222639.223855,33.0,300.0,-1288.0
1772222639.231855,35.0,301.0,-1292.0
1772222639.223855,35.0,300.0,-1292.0
1772222639.231855,33.0,301.0,-1288.0
1772222639.2248638,32.0,301.0,-1286.0
1772222639.2328637,31.0,300.0,-1289.0
1772222639.2275274,30.0,302.0,-1291.0
1772222639.2355273,32.0,300.0,-1287.0
1772222639.2350283,31.0,300.0,-1290.0
1772222639.2430282,30.0,300.0,-1292.0
1772222639.2444928,30.0,302.0,-1291.0
1772222639.2524927,32.0,303.0,-1287.0
1772222639.2701015,33.0,301.0,-1288.0
1772222639.2781014,30.0,299.0,-1290.0
1772222639.270485,31.0,297.0,-1293.0
1772222639.2784848,36.0,299.0,-1288.0
1772222639.275804,35.0,302.0,-1285.0
1772222639.283804,31.0,304.0,-1287.0
1772222639.2769234,30.0,303.0,-1289.0
1772222639.2849233,30.0,301.0,-1285.0
1772222639.2831366,33.0,295.0,-1287.0
1772222639.2911365,31.0,295.0,-1287.0
1772222639.3147922,29.0,296.0,-1291.0
1772222639.322792,31.0,296.0,-1288.0
1772222639.3147922,31.0,297.0,-1288.0
1772222639.322792,31.0,296.0,-1286.0
1772222639.3160198,30.0,298.0,-1290.0
1772222639.3240197,30.0,299.0,-1289.0
1772222639.3212788,29.0,296.0,-1285.0
1772222639.3292787,28.0,297.0,-1285.0
1772222639.3253877,29.0,300.0,-1288.0
1772222639.3333876,31.0,298.0,-1289.0
1772222639.3307555,33.0,296.0,-1287.0
1772222639.3387554,32.0,297.0,-1283.0
1772222639.3604784,30.0,296.0,-1289.0
1772222639.3684783,30.0,295.0,-1290.0
1772222639.3604784,28.0,297.0,-1284.0
1772222639.3684783,27.0,298.0,-1284.0
1772222639.3671188,28.0,294.0,-1288.0
1772222639.3751187,29.0,294.0,-1288.0
1772222639.3678997,30.0,296.0,-1285.0
1772222639.3758996,31.0,297.0,-1284.0
1772222639.3730798,29.0,296.0,-1286.0
1772222639.3810797,29.0,295.0,-1290.0
1772222639.3819442,30.0,299.0,-1285.0
1772222639.389944,28.0,297.0,-1283.0
1772222639.4083252,26.0,295.0,-1286.0
1772222639.416325,29.0,294.0,-1288.0
1772222639.4101825,31.0,297.0,-1285.0
1772222639.4181824,29.0,296.0,-1284.0
1772222639.4209564,32.0,297.0,-1287.0
1772222639.4289563,32.0,293.0,-1288.0
1772222639.4227114,28.0,295.0,-1286.0
1772222639.4307113,29.0,297.0,-1283.0
1772222639.4555848,29.0,296.0,-1284.0
1772222639.4635847,30.0,296.0,-1287.0
1772222639.4555848,31.0,297.0,-1288.0
1772222639.4635847,31.0,301.0,-1282.0
1772222639.4555848,31.0,300.0,-1281.0
1772222639.4635847,29.0,296.0,-1290.0
1772222639.4576287,29.0,293.0,-1286.0
1772222639.4656286,31.0,296.0,-1284.0
1772222639.4583564,31.0,297.0,-1286.0
1772222639.4663563,30.0,300.0,-1288.0
1772222639.4598937,29.0,298.0,-1288.0
1772222639.4678936,32.0,296.0,-1285.0
1772222639.4697325,32.0,298.0,-1285.0
1772222639.4777324,31.0,297.0,-1286.0
1772222639.4759133,31.0,297.0,-1289.0
1772222639.4839132,33.0,297.0,-1285.0
1772222639.497348,32.0,299.0,-1283.0
1772222639.505348,34.0,299.0,-1284.0
1772222639.505814,33.0,301.0,-1288.0
1772222639.513814,34.0,301.0,-1285.0
1772222639.505814,32.0,300.0,-1285.0
1772222639.513814,33.0,300.0,-1284.0
1772222639.513349,30.0,301.0,-1286.0
1772222639.521349,31.0,297.0,-1283.0
1772222639.5173826,33.0,296.0,-1284.0
1772222639.5253825,33.0,297.0,-1280.0
1772222639.5525389,34.0,298.0,-1283.0
1772222639.5605388,33.0,299.0,-1281.0
1772222639.5525389,33.0,300.0,-1279.0
1772222639.5605388,37.0,301.0,-1279.0
1772222639.568193,39.0,302.0,-1283.0
1772222639.5761929,38.0,302.0,-1283.0
1772222639.5702245,38.0,303.0,-1280.0
1772222639.5782244,39.0,302.0,-1286.0
1772222639.574184,37.0,299.0,-1289.0
1772222639.5821838,36.0,302.0,-1289.0
1772222639.5753424,39.0,302.0,-1287.0
1772222639.5833423,37.0,303.0,-1286.0
1772222639.5906081,37.0,306.0,-1285.0
1772222639.598608,36.0,304.0,-1286.0
1772222639.5988612,38.0,303.0,-1283.0
1772222639.606861,42.0,304.0,-1281.0
1772222639.6074305,39.0,301.0,-1284.0
1772222639.6154304,38.0,303.0,-1287.0
1772222639.6074305,39.0,302.0,-1284.0
1772222639.6154304,37.0,300.0,-1285.0
1772222639.6074305,35.0,299.0,-1284.0
1772222639.6154304,34.0,299.0,-1284.0
1772222639.6426191,37.0,304.0,-1283.0
1772222639.650619,38.0,309.0,-1283.0
1772222639.6426191,38.0,303.0,-1282.0
1772222639.650619,36.0,300.0,-1286.0
1772222639.6426191,38.0,302.0,-1286.0
1772222639.650619,42.0,300.0,-1283.0
1772222639.6439338,40.0,298.0,-1283.0
1772222639.6519337,35.0,301.0,-1286.0
1772222639.682809,32.0,303.0,-1285.0
1772222639.690809,31.0,300.0,-1282.0
1772222639.6931372,37.0,295.0,-1285.0
1772222639.701137,35.0,293.0,-1287.0
1772222639.6947134,27.0,290.0,-1286.0
1772222639.7027133,24.0,291.0,-1283.0
1772222639.6963367,22.0,290.0,-1284.0
1772222639.7043366,24.0,287.0,-1286.0
1772222639.6974494,22.0,291.0,-1286.0
1772222639.7054493,19.0,287.0,-1282.0
1772222639.6994724,24.0,291.0,-1280.0
1772222639.7074723,18.0,290.0,-1287.0
1772222639.7005072,17.0,287.0,-1290.0
1772222639.708507,22.0,283.0,-1287.0
1772222639.702026,22.0,282.0,-1283.0
1772222639.7100258,17.0,285.0,-1286.0
1772222639.708069,17.0,290.0,-1288.0
1772222639.716069,15.0,284.0,-1286.0
1772222639.7211745,12.0,283.0,-1286.0
1772222639.7291744,12.0,282.0,-1287.0
1772222639.735753,14.0,284.0,-1288.0
1772222639.743753,14.0,282.0,-1285.0
1772222639.7372494,14.0,283.0,-1282.0
1772222639.7452493,17.0,284.0,-1285.0
1772222639.7402754,19.0,285.0,-1286.0
1772222639.7482753,19.0,285.0,-1287.0
1772222639.7498963,20.0,284.0,-1285.0
1772222639.7578962,20.0,286.0,-1282.0
1772222639.758236,28.0,294.0,-1287.0
1772222639.7662358,25.0,299.0,-1289.0
1772222639.7837422,25.0,304.0,-1285.0
1772222639.791742,33.0,301.0,-1285.0
1772222639.7840452,38.0,299.0,-1284.0
1772222639.792045,36.0,298.0,-1288.0
1772222639.810462,34.0,302.0,-1285.0
1772222639.818462,32.0,301.0,-1283.0
1772222639.8130937,32.0,301.0,-1286.0
1772222639.8210936,33.0,304.0,-1289.0
1772222639.813505,39.0,306.0,-1286.0
1772222639.8215048,42.0,307.0,-1285.0
1772222639.8441925,45.0,308.0,-1286.0
1772222639.8521924,42.0,307.0,-1287.0
1772222639.8441925,40.0,306.0,-1289.0
1772222639.8521924,38.0,304.0,-1284.0
1772222639.8441925,37.0,306.0,-1285.0
1772222639.8521924,36.0,302.0,-1287.0
1772222639.8457024,39.0,303.0,-1290.0
1772222639.8537023,44.0,303.0,-1285.0
1772222639.8472314,43.0,308.0,-1282.0
1772222639.8552313,37.0,307.0,-1288.0
1772222639.8472314,35.0,299.0,-1286.0
1772222639.8552313,41.0,300.0,-1287.0
1772222639.8523011,39.0,298.0,-1286.0
1772222639.860301,39.0,296.0,-1287.0
1772222639.8776877,39.0,297.0,-1290.0
1772222639.8856876,33.0,295.0,-1286.0
1772222639.879208,36.0,298.0,-1283.0
1772222639.887208,37.0,298.0,-1284.0
1772222639.879208,27.0,291.0,-1288.0
1772222639.887208,22.0,291.0,-1286.0
1772222639.9000356,23.0,289.0,-1284.0
1772222639.9080355,19.0,283.0,-1284.0
1772222639.916682,17.0,287.0,-1287.0
1772222639.924682,13.0,287.0,-1281.0
1772222639.926419,17.0,280.0,-1281.0
1772222639.934419,15.0,272.0,-1285.0
1772222639.92793,11.0,276.0,-1287.0
1772222639.93593,11.0,276.0,-1282.0
1772222639.940029,5.0,273.0,-1280.0
1772222639.9480288,2.0,274.0,-1282.0
1772222639.9425857,3.0,273.0,-1285.0
1772222639.9505856,7.0,269.0,-1282.0
1772222639.9477322,5.0,269.0,-1280.0
1772222639.955732,2.0,274.0,-1278.0
1772222639.9487376,4.0,277.0,-1281.0
1772222639.9567375,6.0,278.0,-1284.0
1772222639.9502501,6.0,279.0,-1279.0
1772222639.95825,13.0,279.0,-1277.0
1772222639.9563365,13.0,281.0,-1280.0
1772222639.9643364,1.0,279.0,-1282.0
1772222639.9774795,7.0,283.0,-1280.0
1772222639.9854794,16.0,284.0,-1278.0
1772222639.984821,20.0,282.0,-1283.0
1772222639.992821,16.0,282.0,-1284.0
1772222639.984821,16.0,286.0,-1280.0
1772222639.992821,15.0,283.0,-1280.0
1772222639.991366,10.0,278.0,-1283.0
1772222639.9993658,13.0,278.0,-1285.0
1772222640.0302985,17.0,280.0,-1285.0
1772222640.0382984,16.0,281.0,-1283.0
1772222640.0318792,21.0,286.0,-1285.0
1772222640.039879,24.0,288.0,-1288.0
1772222640.032641,21.0,286.0,-1284.0
1772222640.0406408,17.0,284.0,-1282.0
1772222640.032641,17.0,288.0,-1289.0
1772222640.0406408,23.0,285.0,-1290.0
1772222640.0341628,32.0,287.0,-1291.0
1772222640.0421627,28.0,291.0,-1287.0
1772222640.0371916,23.0,296.0,-1289.0
1772222640.0451915,24.0,291.0,-1291.0
1772222640.0637167,32.0,284.0,-1292.0
1772222640.0717165,39.0,285.0,-1293.0
1772222640.072346,28.0,287.0,-1294.0
1772222640.0803459,10.0,287.0,-1296.0
1772222640.0769286,8.0,292.0,-1298.0
1772222640.0849285,22.0,293.0,-1295.0
1772222640.079013,38.0,291.0,-1296.0
1772222640.087013,41.0,294.0,-1298.0
1772222640.0792668,29.0,283.0,-1299.0
1772222640.0872667,17.0,283.0,-1296.0
1772222640.085324,10.0,283.0,-1291.0
1772222640.093324,14.0,287.0,-1293.0
1772222640.091883,27.0,284.0,-1294.0
1772222640.0998828,32.0,280.0,-1292.0
1772222640.0994766,21.0,280.0,-1291.0
1772222640.1074765,18.0,286.0,-1294.0
1772222640.1368897,18.0,295.0,-1296.0
1772222640.1448896,23.0,298.0,-1295.0
1772222640.1384609,36.0,293.0,-1295.0
1772222640.1464608,40.0,288.0,-1294.0
1772222640.1688669,41.0,293.0,-1297.0
1772222640.1768668,34.0,294.0,-1297.0
1772222640.1740763,34.0,290.0,-1294.0
1772222640.1820762,35.0,292.0,-1292.0
1772222640.1740763,41.0,291.0,-1292.0
1772222640.1820762,35.0,291.0,-1287.0
1772222640.1740763,29.0,291.0,-1287.0
1772222640.1820762,35.0,299.0,-1288.0
1772222640.1754527,36.0,295.0,-1294.0
1772222640.1834526,25.0,281.0,-1294.0
1772222640.1769705,21.0,285.0,-1287.0
1772222640.1849704,18.0,289.0,-1285.0
1772222640.1769705,19.0,294.0,-1288.0
1772222640.1849704,26.0,289.0,-1290.0
1772222640.181063,28.0,286.0,-1285.0
1772222640.1890628,21.0,284.0,-1285.0
1772222640.188763,22.0,289.0,-1285.0
1772222640.1967628,27.0,289.0,-1287.0
1772222640.2166162,24.0,285.0,-1282.0
1772222640.224616,22.0,283.0,-1280.0
1772222640.218134,23.0,277.0,-1282.0
1772222640.2261338,26.0,279.0,-1283.0
1772222640.218134,21.0,282.0,-1282.0
1772222640.2261338,24.0,280.0,-1278.0
1772222640.2201447,31.0,279.0,-1276.0
1772222640.2281446,34.0,285.0,-1282.0
1772222640.2297125,21.0,286.0,-1276.0
1772222640.2377124,22.0,284.0,-1277.0
1772222640.2595532,24.0,280.0,-1280.0
1772222640.267553,27.0,278.0,-1281.0
1772222640.25994,29.0,284.0,-1282.0
1772222640.2679398,29.0,292.0,-1278.0
1772222640.2724545,35.0,293.0,-1280.0
1772222640.2804544,39.0,287.0,-1281.0
1772222640.2724545,40.0,286.0,-1282.0
1772222640.2804544,38.0,289.0,-1283.0
1772222640.2990887,38.0,292.0,-1280.0
1772222640.3070886,39.0,295.0,-1283.0
1772222640.2990887,38.0,295.0,-1283.0
1772222640.3070886,42.0,295.0,-1280.0
1772222640.3243585,45.0,291.0,-1276.0
1772222640.3323584,46.0,295.0,-1280.0
1772222640.3258736,43.0,292.0,-1287.0
1772222640.3338735,37.0,295.0,-1281.0
1772222640.3573973,41.0,297.0,-1278.0
1772222640.3653972,45.0,290.0,-1278.0
1772222640.3574848,48.0,293.0,-1281.0
1772222640.3654847,52.0,297.0,-1279.0
1772222640.3574848,44.0,296.0,-1275.0
1772222640.3654847,33.0,293.0,-1279.0
1772222640.3594952,34.0,289.0,-1283.0
1772222640.367495,41.0,288.0,-1281.0
1772222640.3601294,41.0,291.0,-1276.0
1772222640.3681293,42.0,293.0,-1276.0
1772222640.3758492,46.0,291.0,-1279.0
1772222640.3838491,39.0,287.0,-1283.0
1772222640.3773668,36.0,289.0,-1279.0
1772222640.3853667,40.0,288.0,-1281.0
1772222640.405361,36.0,284.0,-1282.0
1772222640.4133608,35.0,283.0,-1284.0
1772222640.405361,37.0,280.0,-1284.0
1772222640.4133608,39.0,285.0,-1283.0
1772222640.405361,38.0,287.0,-1284.0
1772222640.4133608,40.0,282.0,-1286.0
1772222640.4066787,40.0,285.0,-1285.0
1772222640.4146786,40.0,284.0,-1282.0
1772222640.4066787,36.0,281.0,-1279.0
1772222640.4146786,30.0,285.0,-1285.0
1772222640.4126916,32.0,285.0,-1286.0
1772222640.4206915,36.0,284.0,-1282.0
1772222640.4141994,35.0,280.0,-1281.0
1772222640.4221992,32.0,276.0,-1284.0
1772222640.4141994,33.0,279.0,-1283.0
1772222640.4221992,35.0,278.0,-1281.0
1772222640.424286,28.0,277.0,-1279.0
1772222640.4322858,32.0,279.0,-1284.0
1772222640.4479222,34.0,280.0,-1285.0
1772222640.4559221,35.0,287.0,-1280.0
1772222640.4496071,39.0,290.0,-1277.0
1772222640.457607,34.0,279.0,-1282.0
1772222640.4504018,31.0,280.0,-1284.0
1772222640.4584017,33.0,285.0,-1282.0
1772222640.451926,33.0,286.0,-1281.0
1772222640.459926,33.0,288.0,-1280.0
1772222640.4605417,39.0,285.0,-1284.0
1772222640.4685416,41.0,287.0,-1282.0
1772222640.4944952,37.0,290.0,-1281.0
1772222640.502495,41.0,293.0,-1282.0
1772222640.4959986,42.0,292.0,-1285.0
1772222640.5039985,39.0,289.0,-1282.0
1772222640.5171552,35.0,293.0,-1279.0
1772222640.525155,40.0,290.0,-1280.0
1772222640.5288122,49.0,291.0,-1283.0
1772222640.536812,48.0,295.0,-1282.0
1772222640.537775,33.0,291.0,-1278.0
1772222640.545775,37.0,291.0,-1281.0
1772222640.5378609,40.0,292.0,-1285.0
1772222640.5458608,41.0,285.0,-1279.0
1772222640.5429664,40.0,286.0,-1278.0
1772222640.5509663,46.0,288.0,-1281.0
1772222640.5429664,43.0,289.0,-1284.0
1772222640.5509663,40.0,294.0,-1282.0
1772222640.5441625,39.0,292.0,-1278.0
1772222640.5521624,38.0,282.0,-1279.0
1772222640.5441625,32.0,281.0,-1281.0
1772222640.5521624,28.0,280.0,-1281.0
1772222640.5487056,24.0,278.0,-1278.0
1772222640.5567055,26.0,272.0,-1282.0
1772222640.5558255,27.0,272.0,-1283.0
1772222640.5638254,23.0,272.0,-1283.0
1772222640.5866065,20.0,275.0,-1280.0
1772222640.5946064,21.0,270.0,-1278.0
1772222640.5876062,17.0,267.0,-1280.0
1772222640.595606,14.0,271.0,-1284.0
1772222640.5891104,24.0,267.0,-1280.0
1772222640.5971103,17.0,269.0,-1280.0
1772222640.605731,16.0,260.0,-1282.0
1772222640.613731,14.0,263.0,-1281.0
1772222640.6082568,9.0,268.0,-1279.0
1772222640.6162567,11.0,269.0,-1274.0
1772222640.6356788,13.0,269.0,-1274.0
1772222640.6436787,15.0,264.0,-1285.0
1772222640.6356788,21.0,264.0,-1282.0
1772222640.6436787,23.0,266.0,-1277.0
1772222640.640722,12.0,265.0,-1276.0
1772222640.648722,8.0,266.0,-1284.0
1772222640.646454,12.0,262.0,-1282.0
1772222640.654454,19.0,261.0,-1276.0
1772222640.646454,22.0,262.0,-1276.0
1772222640.654454,14.0,264.0,-1282.0
1772222640.6477022,13.0,260.0,-1280.0
1772222640.655702,14.0,258.0,-1277.0
1772222640.6522377,21.0,263.0,-1275.0
1772222640.6602376,27.0,267.0,-1276.0
1772222640.6781042,27.0,268.0,-1278.0
1772222640.686104,31.0,269.0,-1276.0
1772222640.6784084,35.0,272.0,-1277.0
1772222640.6864083,27.0,275.0,-1284.0
1772222640.6850064,25.0,273.0,-1286.0
1772222640.6930063,30.0,278.0,-1282.0
1772222640.6850064,36.0,281.0,-1283.0
1772222640.6930063,37.0,283.0,-1286.0
1772222640.6920698,40.0,280.0,-1288.0
1772222640.7000697,35.0,280.0,-1284.0
1772222640.6996884,33.0,283.0,-1280.0
1772222640.7076883,37.0,284.0,-1280.0
1772222640.72636,38.0,279.0,-1285.0
1772222640.73436,37.0,276.0,-1281.0
1772222640.7278786,37.0,279.0,-1282.0
1772222640.7358785,37.0,282.0,-1284.0
1772222640.7613206,31.0,280.0,-1286.0
1772222640.7693205,25.0,274.0,-1286.0
1772222640.770758,30.0,279.0,-1284.0
1772222640.7787578,37.0,277.0,-1285.0
1772222640.7762861,30.0,277.0,-1288.0
1772222640.784286,28.0,283.0,-1291.0
1772222640.7762861,30.0,276.0,-1288.0
1772222640.784286,23.0,267.0,-1286.0
1772222640.7808568,22.0,266.0,-1287.0
1772222640.7888567,20.0,267.0,-1290.0
1772222640.7808568,19.0,268.0,-1289.0
1772222640.7888567,22.0,276.0,-1287.0
1772222640.782868,26.0,281.0,-1292.0
1772222640.7908678,26.0,270.0,-1292.0
1772222640.784387,20.0,267.0,-1289.0
1772222640.792387,19.0,270.0,-1289.0
1772222640.7879093,20.0,270.0,-1289.0
1772222640.7959092,22.0,269.0,-1291.0
1772222640.795483,22.0,270.0,-1288.0
1772222640.803483,20.0,266.0,-1293.0
1772222640.8180397,19.0,269.0,-1295.0
1772222640.8260396,16.0,270.0,-1296.0
1772222640.81956,20.0,269.0,-1293.0
1772222640.82756,21.0,272.0,-1288.0
1772222640.8215823,23.0,276.0,-1292.0
1772222640.8295822,22.0,267.0,-1295.0
1772222640.8634264,17.0,262.0,-1294.0
1772222640.8714263,17.0,264.0,-1290.0
1772222640.8635545,21.0,267.0,-1291.0
1772222640.8715544,18.0,273.0,-1295.0
1772222640.8786664,15.0,265.0,-1293.0
1772222640.8866663,19.0,263.0,-1291.0
1772222640.8806837,19.0,263.0,-1290.0
1772222640.8886836,21.0,269.0,-1292.0
1772222640.881349,24.0,272.0,-1292.0
1772222640.889349,22.0,266.0,-1289.0
1772222640.8843813,26.0,269.0,-1289.0
1772222640.8923812,23.0,270.0,-1290.0
1772222640.8843813,24.0,266.0,-1291.0
1772222640.8923812,22.0,267.0,-1290.0
1772222640.886399,26.0,270.0,-1287.0
1772222640.894399,36.0,272.0,-1291.0
1772222640.9134805,34.0,274.0,-1291.0
1772222640.9214804,37.0,278.0,-1289.0
1772222640.9134805,35.0,282.0,-1286.0
1772222640.9214804,35.0,285.0,-1291.0
1772222640.9147215,42.0,287.0,-1293.0
1772222640.9227214,44.0,285.0,-1290.0
1772222640.951427,45.0,289.0,-1288.0
1772222640.9594269,48.0,290.0,-1292.0
1772222640.951427,53.0,286.0,-1294.0
1772222640.9594269,46.0,287.0,-1291.0
1772222640.965025,44.0,291.0,-1288.0
1772222640.9730248,46.0,291.0,-1286.0
1772222640.982692,47.0,289.0,-1292.0
1772222640.990692,48.0,294.0,-1291.0
1772222640.9832127,48.0,288.0,-1288.0
1772222640.9912126,50.0,283.0,-1287.0
1772222640.9988217,47.0,286.0,-1292.0
1772222641.0068216,44.0,292.0,-1292.0
1772222641.0037308,50.0,290.0,-1287.0
1772222641.0117307,55.0,289.0,-1287.0
1772222641.0037308,46.0,291.0,-1287.0
1772222641.0117307,45.0,292.0,-1288.0
1772222641.0050056,53.0,292.0,-1289.0
1772222641.0130055,50.0,292.0,-1287.0
1772222641.0050056,50.0,284.0,-1289.0
1772222641.0130055,51.0,284.0,-1288.0
1772222641.0050056,51.0,289.0,-1284.0
1772222641.0130055,54.0,291.0,-1284.0
1772222641.0050056,47.0,293.0,-1288.0
1772222641.0130055,46.0,290.0,-1288.0
1772222641.0135715,53.0,284.0,-1285.0
1772222641.0215714,52.0,283.0,-1285.0
1772222641.021174,53.0,283.0,-1284.0
1772222641.0291739,49.0,283.0,-1285.0
1772222641.031439,46.0,284.0,-1285.0
1772222641.039439,47.0,283.0,-1284.0
1772222641.0463364,45.0,283.0,-1280.0
1772222641.0543363,41.0,282.0,-1286.0
1772222641.0534368,47.0,277.0,-1287.0
1772222641.0614367,44.0,279.0,-1283.0
1772222641.0534368,41.0,280.0,-1284.0
1772222641.0614367,43.0,278.0,-1286.0
1772222641.0772436,41.0,274.0,-1287.0
1772222641.0852435,36.0,274.0,-1282.0
1772222641.0872762,35.0,272.0,-1282.0
1772222641.095276,38.0,272.0,-1288.0
1772222641.1014502,39.0,270.0,-1289.0
1772222641.10945,38.0,270.0,-1286.0
1772222641.1014502,36.0,274.0,-1283.0
1772222641.10945,34.0,273.0,-1283.0
1772222641.1014502,34.0,277.0,-1287.0
1772222641.10945,34.0,272.0,-1290.0
1772222641.1028767,35.0,271.0,-1285.0
1772222641.1108766,35.0,270.0,-1286.0
1772222641.1114082,36.0,271.0,-1287.0
1772222641.1194081,39.0,270.0,-1284.0
1772222641.116462,34.0,271.0,-1284.0
1772222641.124462,27.0,270.0,-1287.0
1772222641.1414587,29.0,271.0,-1290.0
1772222641.1494586,33.0,271.0,-1286.0
1772222641.1465697,34.0,269.0,-1284.0
1772222641.1545696,34.0,269.0,-1286.0
1772222641.154337,34.0,270.0,-1286.0
1772222641.1623368,33.0,268.0,-1282.0
1772222641.1553469,32.0,269.0,-1283.0
1772222641.1633468,33.0,273.0,-1287.0
1772222641.155832,31.0,271.0,-1289.0
1772222641.163832,28.0,267.0,-1288.0
1772222641.1649067,32.0,269.0,-1285.0
1772222641.1729066,30.0,268.0,-1284.0
1772222641.179629,32.0,268.0,-1287.0
1772222641.187629,31.0,267.0,-1290.0
1772222641.1988084,30.0,267.0,-1286.0
1772222641.2068083,33.0,270.0,-1284.0
1772222641.1988084,33.0,270.0,-1286.0
1772222641.2068083,28.0,272.0,-1285.0
1772222641.2372978,31.0,271.0,-1286.0
1772222641.2452977,31.0,268.0,-1281.0
1772222641.2384753,34.0,270.0,-1281.0
1772222641.2464752,33.0,269.0,-1284.0
1772222641.2384753,29.0,268.0,-1281.0
1772222641.2464752,28.0,269.0,-1279.0
1772222641.2384753,27.0,268.0,-1277.0
1772222641.2464752,32.0,266.0,-1282.0
1772222641.2397404,36.0,267.0,-1283.0
1772222641.2477403,30.0,273.0,-1280.0
1772222641.2464778,33.0,271.0,-1286.0
1772222641.2544777,31.0,268.0,-1292.0
1772222641.2464778,31.0,266.0,-1294.0
1772222641.2544777,31.0,266.0,-1290.0
1772222641.2535388,31.0,267.0,-1289.0
1772222641.2615387,29.0,266.0,-1292.0
1772222641.2622087,27.0,268.0,-1291.0
1772222641.2702086,27.0,269.0,-1285.0
1772222641.2738647,28.0,267.0,-1287.0
1772222641.2818646,29.0,269.0,-1290.0
1772222641.289972,33.0,262.0,-1289.0
1772222641.297972,33.0,265.0,-1287.0
1772222641.3039117,28.0,269.0,-1290.0
1772222641.3119116,22.0,270.0,-1293.0
1772222641.3039117,23.0,267.0,-1294.0
1772222641.3119116,25.0,260.0,-1292.0
1772222641.3305185,28.0,263.0,-1285.0
1772222641.3385184,29.0,268.0,-1287.0
1772222641.3320587,31.0,268.0,-1297.0
1772222641.3400586,29.0,269.0,-1294.0
1772222641.3381157,30.0,268.0,-1289.0
1772222641.3461156,30.0,266.0,-1290.0
1772222641.3381157,30.0,264.0,-1292.0
1772222641.3461156,34.0,266.0,-1291.0
1772222641.3393948,29.0,267.0,-1286.0
1772222641.3473947,23.0,267.0,-1289.0
1772222641.3469667,25.0,265.0,-1294.0
1772222641.3549666,29.0,267.0,-1291.0
1772222641.3469667,28.0,266.0,-1287.0
1772222641.3549666,28.0,264.0,-1287.0
1772222641.355543,26.0,261.0,-1289.0
1772222641.3635428,32.0,263.0,-1292.0
1772222641.3708956,34.0,268.0,-1290.0
1772222641.3788955,28.0,264.0,-1287.0
1772222641.3806412,25.0,266.0,-1289.0
1772222641.388641,25.0,269.0,-1288.0
1772222641.3806412,30.0,268.0,-1286.0
1772222641.388641,33.0,272.0,-1288.0
1772222641.3873253,35.0,270.0,-1291.0
1772222641.3953252,34.0,267.0,-1292.0
1772222641.3969293,33.0,266.0,-1288.0
1772222641.4049292,30.0,271.0,-1285.0
1772222641.4175818,31.0,274.0,-1288.0
1772222641.4255817,31.0,271.0,-1291.0
1772222641.4246852,33.0,273.0,-1288.0
1772222641.4326851,36.0,276.0,-1284.0
1772222641.4367971,38.0,270.0,-1285.0
1772222641.444797,38.0,272.0,-1287.0
1772222641.4393396,34.0,278.0,-1289.0
1772222641.4473395,36.0,272.0,-1288.0
1772222641.471708,33.0,267.0,-1288.0
1772222641.479708,35.0,274.0,-1289.0
1772222641.471708,32.0,277.0,-1290.0
1772222641.479708,32.0,277.0,-1288.0
1772222641.4730532,32.0,276.0,-1288.0
1772222641.481053,37.0,272.0,-1292.0
1772222641.4730532,41.0,271.0,-1292.0
1772222641.481053,42.0,278.0,-1289.0
1772222641.4730532,39.0,283.0,-1287.0
1772222641.481053,35.0,279.0,-1291.0
1772222641.4780853,34.0,277.0,-1291.0
1772222641.4860852,37.0,281.0,-1287.0
1772222641.4861524,43.0,278.0,-1289.0
1772222641.4941523,41.0,277.0,-1289.0
1772222641.490742,41.0,276.0,-1293.0
1772222641.4987419,41.0,275.0,-1292.0
1772222641.5120075,39.0,272.0,-1289.0
1772222641.5200074,37.0,278.0,-1292.0
1772222641.5188446,36.0,280.0,-1293.0
1772222641.5268445,40.0,286.0,-1289.0
1772222641.5188446,40.0,285.0,-1289.0
1772222641.5268445,40.0,276.0,-1288.0
1772222641.5263748,43.0,277.0,-1290.0
1772222641.5343747,41.0,276.0,-1291.0
1772222641.5611496,42.0,278.0,-1288.0
1772222641.5691495,40.0,280.0,-1286.0
1772222641.5611496,41.0,278.0,-1289.0
1772222641.5691495,41.0,279.0,-1289.0
1772222641.598374,40.0,282.0,-1284.0
1772222641.6063738,39.0,283.0,-1284.0
1772222641.6104152,40.0,282.0,-1286.0
1772222641.618415,41.0,282.0,-1291.0
1772222641.6149623,42.0,282.0,-1285.0
1772222641.6229622,44.0,286.0,-1286.0
1772222641.6164734,43.0,290.0,-1288.0
1772222641.6244733,43.0,286.0,-1292.0
1772222641.6210246,45.0,285.0,-1290.0
1772222641.6290245,49.0,289.0,-1286.0
1772222641.6218197,43.0,286.0,-1289.0
1772222641.6298196,41.0,285.0,-1291.0
1772222641.6233463,41.0,283.0,-1287.0
1772222641.6313462,43.0,286.0,-1283.0
1772222641.6233463,46.0,286.0,-1287.0
1772222641.6313462,47.0,289.0,-1292.0
1772222641.6243553,46.0,286.0,-1289.0
1772222641.6323552,43.0,286.0,-1288.0
1772222641.6250122,45.0,285.0,-1288.0
1772222641.633012,43.0,285.0,-1290.0
1772222641.6279433,43.0,286.0,-1290.0
1772222641.6359432,45.0,288.0,-1288.0
1772222641.650223,49.0,291.0,-1287.0
1772222641.658223,47.0,292.0,-1291.0
1772222641.658666,43.0,290.0,-1293.0
1772222641.6666658,41.0,290.0,-1288.0
1772222641.6692688,45.0,290.0,-1288.0
1772222641.6772687,44.0,288.0,-1291.0
1772222641.671286,45.0,288.0,-1292.0
1772222641.679286,43.0,287.0,-1288.0
1772222641.7033274,40.0,286.0,-1287.0
1772222641.7113273,41.0,288.0,-1288.0
1772222641.7036595,40.0,285.0,-1294.0
1772222641.7116594,39.0,283.0,-1291.0
1772222641.7066784,41.0,284.0,-1287.0
1772222641.7146783,45.0,286.0,-1290.0
1772222641.7082636,43.0,285.0,-1293.0
1772222641.7162635,42.0,287.0,-1291.0
1772222641.7127995,38.0,288.0,-1290.0
1772222641.7207994,42.0,288.0,-1290.0
1772222641.7148159,43.0,286.0,-1290.0
1772222641.7228158,44.0,284.0,-1291.0
1772222641.7163389,42.0,286.0,-1288.0
1772222641.7243388,41.0,286.0,-1288.0
1772222641.725915,38.0,284.0,-1290.0
1772222641.7339149,37.0,288.0,-1287.0
1772222641.7414012,41.0,289.0,-1287.0
1772222641.749401,42.0,288.0,-1287.0
1772222641.7484436,43.0,288.0,-1291.0
1772222641.7564435,45.0,290.0,-1289.0
1772222641.7655506,44.0,289.0,-1287.0
1772222641.7735505,39.0,288.0,-1285.0
1772222641.7655506,37.0,292.0,-1287.0
1772222641.7735505,41.0,288.0,-1288.0
1772222641.7992148,44.0,287.0,-1283.0
1772222641.8072147,44.0,291.0,-1283.0
1772222641.8058524,47.0,291.0,-1287.0
1772222641.8138523,45.0,290.0,-1290.0
1772222641.8132603,42.0,290.0,-1290.0
1772222641.8212602,41.0,293.0,-1291.0
1772222641.8147666,42.0,294.0,-1291.0
1772222641.8227665,44.0,292.0,-1296.0
1772222641.8147666,44.0,292.0,-1294.0
1772222641.8227665,41.0,291.0,-1290.0
1772222641.8182988,43.0,290.0,-1290.0
1772222641.8262987,45.0,291.0,-1296.0
1772222641.8203194,44.0,290.0,-1294.0
1772222641.8283193,40.0,288.0,-1289.0
1772222641.821883,41.0,289.0,-1291.0
1772222641.8298829,43.0,291.0,-1293.0
1772222641.8274386,43.0,291.0,-1289.0
1772222641.8354385,43.0,292.0,-1288.0
1772222641.835167,41.0,290.0,-1290.0
1772222641.8431668,41.0,288.0,-1291.0
1772222641.857729,41.0,290.0,-1291.0
1772222641.8657289,41.0,290.0,-1290.0
1772222641.857729,38.0,287.0,-1289.0
1772222641.8657289,35.0,286.0,-1291.0
1772222641.8617656,35.0,288.0,-1291.0
1772222641.8697655,40.0,287.0,-1285.0
1772222641.8719044,42.0,287.0,-1286.0
1772222641.8799043,37.0,286.0,-1290.0
1772222641.8754687,34.0,289.0,-1291.0
1772222641.8834686,38.0,291.0,-1289.0
1772222641.9026468,36.0,290.0,-1286.0
1772222641.9106467,35.0,288.0,-1286.0
1772222641.9104621,35.0,284.0,-1293.0
1772222641.918462,37.0,283.0,-1286.0
1772222641.9120219,37.0,284.0,-1286.0
1772222641.9200218,35.0,286.0,-1291.0
1772222641.9251726,36.0,289.0,-1293.0
1772222641.9331725,38.0,288.0,-1290.0
1772222641.9251726,40.0,288.0,-1289.0
1772222641.9331725,36.0,289.0,-1289.0
1772222641.926692,34.0,290.0,-1291.0
1772222641.934692,35.0,289.0,-1295.0
1772222641.9430003,34.0,287.0,-1290.0
1772222641.9510002,34.0,287.0,-1290.0
1772222641.9505298,37.0,287.0,-1293.0
1772222641.9585297,36.0,288.0,-1296.0
1772222641.9505298,35.0,291.0,-1292.0
1772222641.9585297,34.0,291.0,-1292.0
1772222641.957122,37.0,291.0,-1295.0
1772222641.965122,41.0,293.0,-1294.0
1772222641.9636781,42.0,293.0,-1290.0
1772222641.971678,38.0,295.0,-1291.0
1772222641.9892135,35.0,294.0,-1292.0
1772222641.9972134,37.0,295.0,-1295.0
1772222641.9961352,39.0,296.0,-1292.0
1772222642.0041351,38.0,294.0,-1287.0
1772222641.9976559,38.0,294.0,-1291.0
1772222642.0056558,38.0,294.0,-1294.0
1772222641.9976559,38.0,293.0,-1291.0
1772222642.0056558,38.0,292.0,-1288.0
1772222642.02367,39.0,293.0,-1289.0
1772222642.0316699,40.0,292.0,-1292.0
1772222642.0357275,41.0,294.0,-1291.0
1772222642.0437274,36.0,292.0,-1291.0
1772222642.048764,35.0,290.0,-1291.0
1772222642.056764,37.0,290.0,-1291.0
1772222642.0491538,36.0,288.0,-1291.0
1772222642.0571537,35.0,291.0,-1285.0
1772222642.0536935,36.0,294.0,-1287.0
1772222642.0616934,38.0,291.0,-1293.0
1772222642.0572507,37.0,289.0,-1292.0
1772222642.0652506,36.0,287.0,-1289.0
1772222642.0622833,34.0,286.0,-1289.0
1772222642.0702832,32.0,288.0,-1295.0
1772222642.0634022,33.0,287.0,-1294.0
1772222642.071402,35.0,289.0,-1290.0
1772222642.0685894,36.0,288.0,-1289.0
1772222642.0765893,36.0,285.0,-1291.0
1772222642.0831966,33.0,287.0,-1293.0
1772222642.0911965,32.0,287.0,-1291.0
1772222642.089918,33.0,288.0,-1290.0
1772222642.0979178,35.0,289.0,-1292.0
1772222642.0919297,36.0,289.0,-1295.0
1772222642.0999296,32.0,288.0,-1292.0
1772222642.0999951,32.0,290.0,-1287.0
1772222642.107995,35.0,289.0,-1287.0
1772222642.1121418,35.0,288.0,-1290.0
1772222642.1201417,31.0,287.0,-1292.0
1772222642.1287413,32.0,289.0,-1289.0
1772222642.1367412,31.0,293.0,-1289.0
1772222642.1482842,34.0,290.0,-1291.0
1772222642.156284,33.0,288.0,-1289.0
1772222642.1498363,32.0,288.0,-1285.0
1772222642.1578362,33.0,290.0,-1288.0
1772222642.1594381,31.0,288.0,-1291.0
1772222642.167438,32.0,289.0,-1287.0
1772222642.1599424,35.0,292.0,-1283.0
1772222642.1679423,35.0,295.0,-1284.0
1772222642.177683,33.0,297.0,-1285.0
1772222642.185683,34.0,295.0,-1285.0
1772222642.1846955,34.0,292.0,-1284.0
1772222642.1926954,36.0,290.0,-1284.0
1772222642.1970985,38.0,293.0,-1286.0
1772222642.2050984,35.0,293.0,-1289.0
1772222642.1986868,34.0,295.0,-1288.0
1772222642.2066867,35.0,297.0,-1286.0
1772222642.1989572,35.0,298.0,-1287.0
1772222642.206957,37.0,297.0,-1287.0
1772222642.2004774,37.0,297.0,-1288.0
1772222642.2084773,38.0,295.0,-1285.0
1772222642.2050803,37.0,293.0,-1286.0
1772222642.2130802,36.0,295.0,-1289.0
1772222642.223116,34.0,298.0,-1285.0
1772222642.2311158,37.0,297.0,-1286.0
1772222642.2306464,39.0,296.0,-1289.0
1772222642.2386463,35.0,295.0,-1291.0
1772222642.2306464,36.0,295.0,-1287.0
1772222642.2386463,31.0,296.0,-1283.0
1772222642.2390075,33.0,295.0,-1287.0
1772222642.2470074,35.0,297.0,-1289.0
1772222642.276145,34.0,294.0,-1292.0
1772222642.2841449,38.0,295.0,-1286.0
1772222642.276145,35.0,298.0,-1287.0
1772222642.2841449,33.0,297.0,-1290.0
1772222642.283878,34.0,297.0,-1287.0
1772222642.291878,35.0,297.0,-1283.0
1772222642.2850814,35.0,296.0,-1284.0
1772222642.2930813,36.0,296.0,-1288.0
1772222642.2896206,37.0,296.0,-1289.0
1772222642.2976205,36.0,299.0,-1287.0
1772222642.2896206,32.0,300.0,-1285.0
1772222642.2976205,31.0,296.0,-1287.0
1772222642.2946157,33.0,295.0,-1283.0
1772222642.3026156,35.0,295.0,-1277.0
1772222642.3011637,35.0,296.0,-1278.0
1772222642.3091636,35.0,299.0,-1281.0
1772222642.3301833,35.0,300.0,-1287.0
1772222642.3381832,33.0,299.0,-1283.0
1772222642.3305287,34.0,298.0,-1280.0
1772222642.3385286,34.0,299.0,-1283.0
1772222642.3320339,33.0,302.0,-1291.0
1772222642.3400338,33.0,300.0,-1291.0
1772222642.3320339,35.0,298.0,-1286.0
1772222642.3400338,33.0,298.0,-1287.0
1772222642.3405983,34.0,301.0,-1291.0
1772222642.3485982,34.0,301.0,-1288.0
1772222642.3661017,35.0,300.0,-1284.0
1772222642.3741016,33.0,302.0,-1282.0
1772222642.3661017,35.0,305.0,-1285.0
1772222642.3741016,36.0,302.0,-1286.0
1772222642.3857877,37.0,300.0,-1282.0
1772222642.3937876,36.0,301.0,-1280.0
1772222642.3867931,32.0,301.0,-1286.0
1772222642.394793,34.0,301.0,-1285.0
1772222642.392893,37.0,304.0,-1283.0
1772222642.400893,37.0,304.0,-1281.0
1772222642.4151459,36.0,302.0,-1284.0
1772222642.4231458,36.0,305.0,-1285.0
1772222642.4166687,38.0,304.0,-1280.0
1772222642.4246686,40.0,304.0,-1279.0
1772222642.4166687,36.0,302.0,-1283.0
1772222642.4246686,35.0,300.0,-1281.0
1772222642.4222002,35.0,302.0,-1285.0
1772222642.4302,35.0,307.0,-1281.0
1772222642.4240358,36.0,304.0,-1281.0
1772222642.4320357,34.0,303.0,-1285.0
1772222642.430123,36.0,303.0,-1284.0
1772222642.438123,38.0,303.0,-1281.0
1772222642.4373424,38.0,306.0,-1283.0
1772222642.4453423,37.0,303.0,-1285.0
1772222642.4592633,37.0,304.0,-1282.0
1772222642.4672632,37.0,307.0,-1282.0
1772222642.4687881,38.0,301.0,-1280.0
1772222642.476788,37.0,300.0,-1285.0
1772222642.4697905,34.0,303.0,-1285.0
1772222642.4777904,35.0,302.0,-1280.0
1772222642.476059,37.0,305.0,-1280.0
1772222642.4840589,38.0,305.0,-1284.0
1772222642.5079048,36.0,306.0,-1286.0
1772222642.5159047,35.0,307.0,-1283.0
1772222642.5079048,35.0,303.0,-1282.0
1772222642.5159047,37.0,301.0,-1283.0
1772222642.5079048,40.0,301.0,-1285.0
1772222642.5159047,37.0,303.0,-1283.0
1772222642.5224845,37.0,303.0,-1282.0
1772222642.5304844,35.0,305.0,-1284.0
1772222642.5224845,37.0,304.0,-1284.0
1772222642.5304844,37.0,304.0,-1282.0
1772222642.5245242,35.0,304.0,-1281.0
1772222642.532524,34.0,304.0,-1289.0
1772222642.5325694,37.0,307.0,-1289.0
1772222642.5405693,39.0,307.0,-1283.0
1772222642.5338662,40.0,304.0,-1281.0
1772222642.541866,40.0,306.0,-1282.0
1772222642.5554898,40.0,306.0,-1288.0
1772222642.5634897,39.0,307.0,-1284.0
1772222642.5635257,35.0,305.0,-1281.0
1772222642.5715256,36.0,305.0,-1282.0
1772222642.5645492,37.0,308.0,-1285.0
1772222642.572549,36.0,307.0,-1284.0
1772222642.5660644,39.0,303.0,-1282.0
1772222642.5740643,40.0,305.0,-1280.0
1772222642.576154,38.0,307.0,-1283.0
1772222642.584154,36.0,303.0,-1284.0
1772222642.5792255,36.0,302.0,-1279.0
1772222642.5872254,37.0,304.0,-1278.0
1772222642.6029418,37.0,309.0,-1280.0
1772222642.6109416,38.0,308.0,-1285.0
1772222642.615413,39.0,306.0,-1280.0
1772222642.6234128,41.0,307.0,-1276.0
1772222642.616552,40.0,305.0,-1282.0
1772222642.624552,38.0,305.0,-1285.0
1772222642.646944,36.0,310.0,-1280.0
1772222642.654944,35.0,308.0,-1279.0
1772222642.6484673,37.0,306.0,-1280.0
1772222642.6564672,37.0,306.0,-1280.0
1772222642.6484673,37.0,305.0,-1278.0
1772222642.6564672,40.0,306.0,-1280.0
1772222642.6494727,41.0,308.0,-1283.0
1772222642.6574726,41.0,310.0,-1284.0
1772222642.6499825,40.0,309.0,-1284.0
1772222642.6579823,36.0,308.0,-1279.0
1772222642.6516314,35.0,305.0,-1280.0
1772222642.6596313,37.0,307.0,-1283.0
1772222642.6607058,38.0,307.0,-1285.0
1772222642.6687057,38.0,306.0,-1281.0
1772222642.6753845,39.0,306.0,-1281.0
1772222642.6833844,40.0,310.0,-1281.0
1772222642.6896882,41.0,311.0,-1281.0
1772222642.697688,40.0,311.0,-1283.0
1772222642.6976051,36.0,308.0,-1281.0
1772222642.705605,36.0,306.0,-1284.0
1772222642.6976051,36.0,308.0,-1285.0
1772222642.705605,36.0,308.0,-1284.0
1772222642.6996186,38.0,307.0,-1280.0
1772222642.7076185,39.0,307.0,-1284.0
1772222642.7071805,38.0,307.0,-1285.0
1772222642.7151804,35.0,306.0,-1281.0
1772222642.7369776,34.0,307.0,-1276.0
1772222642.7449775,33.0,305.0,-1280.0
1772222642.7449753,34.0,304.0,-1285.0
1772222642.7529752,35.0,305.0,-1285.0
1772222642.7598495,35.0,305.0,-1281.0
1772222642.7678494,35.0,306.0,-1282.0
1772222642.760298,35.0,308.0,-1284.0
1772222642.768298,38.0,307.0,-1282.0
1772222642.7618074,38.0,304.0,-1279.0
1772222642.7698073,36.0,303.0,-1283.0
1772222642.7628195,34.0,305.0,-1286.0
1772222642.7708194,33.0,307.0,-1284.0
1772222642.7720284,35.0,305.0,-1278.0
1772222642.7800283,36.0,304.0,-1278.0
1772222642.783747,34.0,306.0,-1287.0
1772222642.7917469,33.0,304.0,-1284.0
1772222642.7862701,33.0,303.0,-1282.0
1772222642.79427,34.0,306.0,-1281.0
1772222642.7888513,34.0,307.0,-1284.0
1772222642.7968512,35.0,305.0,-1284.0
1772222642.7954106,35.0,304.0,-1282.0
1772222642.8034105,34.0,303.0,-1280.0
1772222642.8045597,32.0,303.0,-1281.0
1772222642.8125596,30.0,304.0,-1283.0
1772222642.8337991,30.0,303.0,-1284.0
1772222642.841799,32.0,304.0,-1280.0
1772222642.836316,33.0,305.0,-1281.0
1772222642.844316,31.0,303.0,-1281.0
1772222642.8762987,32.0,303.0,-1277.0
1772222642.8842986,33.0,301.0,-1274.0
1772222642.8826761,33.0,300.0,-1273.0
1772222642.890676,35.0,302.0,-1279.0
1772222642.8932672,35.0,304.0,-1279.0
1772222642.901267,32.0,308.0,-1276.0
1772222642.8942723,31.0,306.0,-1283.0
1772222642.9022722,32.0,302.0,-1287.0
1772222642.9064143,32.0,302.0,-1285.0
1772222642.9144142,28.0,302.0,-1282.0
1772222642.9091973,29.0,302.0,-1280.0
1772222642.9171972,31.0,302.0,-1284.0
1772222642.9168065,31.0,303.0,-1285.0
1772222642.9248064,32.0,304.0,-1281.0
1772222642.9300137,32.0,304.0,-1281.0
1772222642.9380136,31.0,304.0,-1282.0
1772222642.9300137,30.0,303.0,-1283.0
1772222642.9380136,28.0,300.0,-1281.0
1772222642.9312797,28.0,300.0,-1280.0
1772222642.9392796,30.0,301.0,-1282.0
1772222642.9312797,30.0,301.0,-1284.0
1772222642.9392796,29.0,303.0,-1282.0
1772222642.9312797,29.0,302.0,-1278.0
1772222642.9392796,30.0,302.0,-1281.0
1772222642.9383204,28.0,300.0,-1286.0
1772222642.9463203,28.0,302.0,-1282.0
1772222642.9383204,29.0,306.0,-1284.0
1772222642.9463203,31.0,306.0,-1282.0
1772222642.941876,32.0,303.0,-1283.0
1772222642.9498758,29.0,305.0,-1284.0
1772222642.9724476,29.0,302.0,-1281.0
1772222642.9804475,30.0,300.0,-1282.0
1772222642.9724476,28.0,303.0,-1284.0
1772222642.9804475,28.0,304.0,-1284.0
1772222642.9961207,29.0,304.0,-1282.0
1772222643.0041206,31.0,303.0,-1280.0
1772222642.9972525,31.0,305.0,-1283.0
1772222643.0052524,32.0,305.0,-1283.0
1772222643.0013745,30.0,302.0,-1282.0
1772222643.0093744,27.0,299.0,-1278.0
1772222643.009679,29.0,302.0,-1283.0
1772222643.017679,30.0,302.0,-1283.0
1772222643.0214903,31.0,303.0,-1279.0
1772222643.0294902,32.0,304.0,-1278.0
1772222643.0214903,30.0,305.0,-1282.0
1772222643.0294902,30.0,307.0,-1282.0
1772222643.0214903,31.0,305.0,-1279.0
1772222643.0294902,32.0,302.0,-1282.0
1772222643.0376115,30.0,301.0,-1283.0
1772222643.0456114,27.0,301.0,-1285.0
1772222643.037947,28.0,304.0,-1283.0
1772222643.0459468,30.0,307.0,-1280.0
1772222643.0394635,32.0,307.0,-1284.0
1772222643.0474634,29.0,303.0,-1283.0
1772222643.044509,24.0,303.0,-1284.0
1772222643.0525088,23.0,298.0,-1283.0
1772222643.0662525,21.0,297.0,-1282.0
1772222643.0742524,19.0,295.0,-1287.0
1772222643.0682604,17.0,292.0,-1284.0
1772222643.0762603,16.0,289.0,-1282.0
1772222643.0913973,15.0,290.0,-1281.0
1772222643.0993972,13.0,294.0,-1285.0
1772222643.0921333,11.0,291.0,-1283.0
1772222643.1001332,9.0,287.0,-1280.0
1772222643.1108284,9.0,285.0,-1280.0
1772222643.1188283,12.0,287.0,-1282.0
1772222643.1108284,10.0,289.0,-1282.0
1772222643.1188283,9.0,290.0,-1284.0
1772222643.1122503,10.0,290.0,-1279.0
1772222643.1202502,9.0,287.0,-1284.0
1772222643.1122503,9.0,289.0,-1288.0
1772222643.1202502,11.0,291.0,-1283.0
1772222643.1167934,11.0,290.0,-1283.0
1772222643.1247933,10.0,289.0,-1284.0
1772222643.1258624,12.0,288.0,-1287.0
1772222643.1338623,12.0,290.0,-1282.0
1772222643.1309037,12.0,293.0,-1283.0
1772222643.1389036,11.0,293.0,-1283.0
1772222643.1406584,9.0,293.0,-1286.0
1772222643.1486583,9.0,291.0,-1285.0
1772222643.1548123,11.0,294.0,-1282.0
1772222643.1628122,13.0,290.0,-1283.0
1772222643.160956,11.0,288.0,-1285.0
1772222643.1689558,10.0,290.0,-1285.0
1772222643.1644795,12.0,292.0,-1284.0
1772222643.1724794,12.0,292.0,-1281.0
1772222643.172549,12.0,293.0,-1284.0
1772222643.180549,12.0,292.0,-1283.0
1772222643.2050157,11.0,293.0,-1283.0
1772222643.2130156,11.0,293.0,-1282.0
1772222643.2050157,11.0,293.0,-1283.0
1772222643.2130156,12.0,292.0,-1286.0
1772222643.2062628,12.0,289.0,-1285.0
1772222643.2142627,12.0,290.0,-1282.0
1772222643.2244065,10.0,291.0,-1285.0
1772222643.2324064,12.0,290.0,-1286.0
1772222643.2244065,11.0,292.0,-1283.0
1772222643.2324064,11.0,293.0,-1280.0
1772222643.227939,10.0,291.0,-1283.0
1772222643.2359388,10.0,288.0,-1287.0
1772222643.2294514,11.0,288.0,-1282.0
1772222643.2374513,11.0,290.0,-1279.0
1772222643.246678,11.0,292.0,-1282.0
1772222643.254678,12.0,291.0,-1285.0
1772222643.2531917,11.0,291.0,-1284.0
1772222643.2611916,11.0,292.0,-1283.0
1772222643.2531917,11.0,292.0,-1283.0
1772222643.2611916,14.0,294.0,-1286.0
1772222643.260276,15.0,292.0,-1286.0
1772222643.268276,11.0,289.0,-1279.0
1772222643.2673903,12.0,291.0,-1282.0
1772222643.2753901,10.0,290.0,-1289.0
1772222643.2764883,12.0,290.0,-1288.0
1772222643.2844882,13.0,293.0,-1283.0
1772222643.2914796,10.0,293.0,-1284.0
1772222643.2994795,10.0,292.0,-1285.0
1772222643.2980103,11.0,290.0,-1286.0
1772222643.3060102,10.0,291.0,-1284.0
1772222643.3010268,12.0,292.0,-1285.0
1772222643.3090267,14.0,293.0,-1287.0
1772222643.333822,14.0,291.0,-1288.0
1772222643.341822,12.0,290.0,-1284.0
1772222643.34613,10.0,289.0,-1282.0
1772222643.3541298,12.0,290.0,-1287.0
