# team: unknown
# label: peace_baseline-EOG
# timestamp: 20260227_150028
# sample_rate: 250
# samples: 14044
# duration_sec: 61.995
# channels: EOG1,EOG2,EMG3
#
timestamp,EOG1,EOG2,EMG3
1772222366.3362775,15.0,205.0,-1493.0
1772222366.3442774,16.0,206.0,-1487.0
1772222366.3414998,16.0,205.0,-1479.0
1772222366.3494997,16.0,204.0,-1483.0
1772222366.344081,16.0,205.0,-1486.0
1772222366.3520808,16.0,205.0,-1477.0
1772222366.3474536,16.0,206.0,-1472.0
1772222366.3554535,16.0,207.0,-1478.0
1772222366.3504097,15.0,205.0,-1485.0
1772222366.3584096,17.0,206.0,-1482.0
1772222366.3515074,15.0,204.0,-1479.0
1772222366.3595073,15.0,206.0,-1485.0
1772222366.3547058,16.0,204.0,-1494.0
1772222366.3627057,17.0,205.0,-1492.0
1772222366.3576696,15.0,207.0,-1488.0
1772222366.3656695,14.0,204.0,-1490.0
1772222366.3737142,16.0,205.0,-1495.0
1772222366.381714,15.0,205.0,-1493.0
1772222366.4095483,16.0,204.0,-1490.0
1772222366.4175482,15.0,205.0,-1489.0
1772222366.4596717,16.0,206.0,-1494.0
1772222366.4676716,16.0,204.0,-1499.0
1772222366.4616747,15.0,205.0,-1494.0
1772222366.4696746,15.0,205.0,-1494.0
1772222366.4636304,18.0,206.0,-1500.0
1772222366.4716303,15.0,206.0,-1503.0
1772222366.4652448,15.0,203.0,-1499.0
1772222366.4732447,15.0,206.0,-1497.0
1772222366.466863,16.0,204.0,-1506.0
1772222366.4748628,16.0,206.0,-1509.0
1772222366.4688647,17.0,206.0,-1502.0
1772222366.4768646,15.0,206.0,-1499.0
1772222366.4702868,15.0,205.0,-1501.0
1772222366.4782867,16.0,203.0,-1504.0
1772222366.471818,19.0,205.0,-1500.0
1772222366.4798179,16.0,206.0,-1492.0
1772222366.4733133,16.0,204.0,-1491.0
1772222366.4813132,15.0,205.0,-1495.0
1772222366.4743874,16.0,209.0,-1492.0
1772222366.4823873,19.0,207.0,-1488.0
1772222366.4764166,17.0,205.0,-1486.0
1772222366.4844165,14.0,205.0,-1493.0
1772222366.478701,17.0,205.0,-1491.0
1772222366.486701,17.0,205.0,-1487.0
1772222366.4812894,17.0,205.0,-1486.0
1772222366.4892893,17.0,206.0,-1490.0
1772222366.4840946,18.0,208.0,-1491.0
1772222366.4920945,17.0,207.0,-1484.0
1772222366.486669,19.0,206.0,-1483.0
1772222366.494669,18.0,205.0,-1490.0
1772222366.4896936,19.0,206.0,-1490.0
1772222366.4976935,20.0,207.0,-1485.0
1772222366.4911394,20.0,208.0,-1485.0
1772222366.4991393,21.0,206.0,-1491.0
1772222366.4941907,21.0,206.0,-1496.0
1772222366.5021906,20.0,208.0,-1493.0
1772222366.4966948,18.0,206.0,-1492.0
1772222366.5046947,20.0,208.0,-1498.0
1772222366.4979794,20.0,207.0,-1505.0
1772222366.5059793,19.0,206.0,-1505.0
1772222366.5089192,21.0,207.0,-1497.0
1772222366.5169191,21.0,206.0,-1499.0
1772222366.5564587,21.0,205.0,-1504.0
1772222366.5644586,22.0,208.0,-1502.0
1772222366.5676405,22.0,208.0,-1497.0
1772222366.5756404,20.0,208.0,-1500.0
1772222366.6101997,22.0,208.0,-1510.0
1772222366.6181996,24.0,207.0,-1511.0
1772222366.6391788,24.0,207.0,-1508.0
1772222366.6471786,23.0,210.0,-1508.0
1772222366.6407459,20.0,209.0,-1514.0
1772222366.6487458,21.0,207.0,-1515.0
1772222366.642891,22.0,208.0,-1512.0
1772222366.6508908,22.0,208.0,-1510.0
1772222366.6445506,23.0,209.0,-1514.0
1772222366.6525505,21.0,206.0,-1512.0
1772222366.645935,20.0,208.0,-1504.0
1772222366.653935,20.0,208.0,-1498.0
1772222366.6504867,21.0,207.0,-1505.0
1772222366.6584866,21.0,208.0,-1506.0
1772222366.652334,20.0,207.0,-1501.0
1772222366.6603339,20.0,207.0,-1493.0
1772222366.654366,21.0,208.0,-1495.0
1772222366.662366,21.0,207.0,-1495.0
1772222366.656338,19.0,208.0,-1489.0
1772222366.6643379,20.0,207.0,-1486.0
1772222366.6586335,23.0,208.0,-1488.0
1772222366.6666334,20.0,208.0,-1492.0
1772222366.6621487,22.0,209.0,-1490.0
1772222366.6701486,22.0,208.0,-1487.0
1772222366.6642218,23.0,208.0,-1487.0
1772222366.6722217,21.0,208.0,-1493.0
1772222366.6793954,22.0,209.0,-1492.0
1772222366.6873953,21.0,207.0,-1489.0
1772222366.7036223,21.0,207.0,-1490.0
1772222366.7116222,21.0,209.0,-1494.0
1772222366.7282345,19.0,207.0,-1494.0
1772222366.7362344,21.0,208.0,-1490.0
1772222366.7375512,21.0,208.0,-1490.0
1772222366.745551,20.0,208.0,-1494.0
1772222366.7395594,20.0,207.0,-1494.0
1772222366.7475593,20.0,208.0,-1490.0
1772222366.757653,20.0,209.0,-1487.0
1772222366.765653,20.0,208.0,-1488.0
1772222366.7596297,21.0,208.0,-1492.0
1772222366.7676296,20.0,208.0,-1491.0
1772222366.76137,20.0,208.0,-1490.0
1772222366.7693698,19.0,208.0,-1495.0
1772222366.7628634,20.0,207.0,-1503.0
1772222366.7708633,18.0,207.0,-1501.0
1772222366.7643108,19.0,208.0,-1498.0
1772222366.7723107,20.0,206.0,-1502.0
1772222366.7660627,17.0,206.0,-1508.0
1772222366.7740626,18.0,207.0,-1506.0
1772222366.7702904,18.0,208.0,-1503.0
1772222366.7782903,19.0,206.0,-1501.0
1772222366.7726843,18.0,206.0,-1503.0
1772222366.7806842,19.0,207.0,-1502.0
1772222366.7755697,20.0,207.0,-1495.0
1772222366.7835696,20.0,207.0,-1493.0
1772222366.777805,19.0,207.0,-1496.0
1772222366.785805,18.0,206.0,-1495.0
1772222366.7798498,21.0,206.0,-1490.0
1772222366.7878497,20.0,207.0,-1487.0
1772222366.7818563,18.0,208.0,-1489.0
1772222366.7898562,18.0,207.0,-1491.0
1772222366.784315,18.0,205.0,-1484.0
1772222366.792315,19.0,206.0,-1483.0
1772222366.786294,19.0,206.0,-1486.0
1772222366.7942939,19.0,206.0,-1492.0
1772222366.8024302,19.0,206.0,-1489.0
1772222366.81043,20.0,208.0,-1490.0
1772222366.8276596,19.0,208.0,-1493.0
1772222366.8356595,20.0,207.0,-1498.0
1772222366.8512182,20.0,208.0,-1493.0
1772222366.8592181,19.0,207.0,-1484.0
1772222366.853764,19.0,206.0,-1485.0
1772222366.861764,18.0,207.0,-1490.0
1772222366.8613038,17.0,208.0,-1486.0
1772222366.8693037,19.0,208.0,-1482.0
1772222366.878562,18.0,205.0,-1486.0
1772222366.8865619,20.0,206.0,-1492.0
1772222366.8799238,21.0,208.0,-1490.0
1772222366.8879237,19.0,207.0,-1486.0
1772222366.8814993,18.0,205.0,-1485.0
1772222366.8894992,20.0,207.0,-1492.0
1772222366.8830838,21.0,207.0,-1497.0
1772222366.8910837,18.0,207.0,-1493.0
1772222366.8847911,18.0,206.0,-1491.0
1772222366.892791,18.0,207.0,-1500.0
1772222366.8868454,18.0,209.0,-1502.0
1772222366.8948452,18.0,205.0,-1501.0
1772222366.8883996,17.0,205.0,-1500.0
1772222366.8963995,19.0,207.0,-1504.0
1772222366.8919177,19.0,207.0,-1509.0
1772222366.8999176,19.0,207.0,-1506.0
1772222366.8952096,20.0,207.0,-1501.0
1772222366.9032094,20.0,206.0,-1504.0
1772222366.897788,18.0,206.0,-1506.0
1772222366.905788,19.0,207.0,-1506.0
1772222366.900443,18.0,206.0,-1498.0
1772222366.908443,19.0,208.0,-1498.0
1772222366.9014285,19.0,208.0,-1500.0
1772222366.9094284,20.0,208.0,-1498.0
1772222366.9198296,21.0,207.0,-1488.0
1772222366.9278295,22.0,208.0,-1492.0
1772222366.942762,21.0,209.0,-1501.0
1772222366.9507618,19.0,209.0,-1499.0
1772222366.9670212,18.0,206.0,-1492.0
1772222366.9750211,19.0,206.0,-1488.0
1772222366.9766238,20.0,208.0,-1492.0
1772222366.9846237,21.0,209.0,-1491.0
1772222367.0080276,21.0,209.0,-1488.0
1772222367.0160275,19.0,207.0,-1487.0
1772222367.0102441,20.0,207.0,-1493.0
1772222367.018244,20.0,207.0,-1495.0
1772222367.0122466,21.0,207.0,-1491.0
1772222367.0202465,21.0,207.0,-1489.0
1772222367.0138564,21.0,209.0,-1496.0
1772222367.0218563,21.0,208.0,-1502.0
1772222367.01543,23.0,209.0,-1498.0
1772222367.0234299,21.0,207.0,-1495.0
1772222367.0175004,20.0,209.0,-1499.0
1772222367.0255003,22.0,209.0,-1505.0
1772222367.018497,21.0,208.0,-1501.0
1772222367.026497,23.0,209.0,-1498.0
1772222367.021326,21.0,210.0,-1501.0
1772222367.029326,21.0,209.0,-1505.0
1772222367.0233543,23.0,208.0,-1501.0
1772222367.0313542,24.0,210.0,-1497.0
1772222367.0248523,21.0,209.0,-1497.0
1772222367.0328522,22.0,208.0,-1501.0
1772222367.028385,22.0,209.0,-1500.0
1772222367.0363848,22.0,209.0,-1497.0
1772222367.031434,21.0,209.0,-1497.0
1772222367.039434,22.0,209.0,-1503.0
1772222367.0324361,21.0,208.0,-1504.0
1772222367.040436,20.0,207.0,-1499.0
1772222367.0366678,21.0,207.0,-1498.0
1772222367.0446677,22.0,207.0,-1505.0
1772222367.0387979,21.0,209.0,-1507.0
1772222367.0467978,22.0,209.0,-1502.0
1772222367.0428526,24.0,206.0,-1501.0
1772222367.0508525,25.0,209.0,-1508.0
1772222367.0578542,20.0,208.0,-1512.0
1772222367.065854,21.0,210.0,-1508.0
1772222367.0588846,21.0,210.0,-1504.0
1772222367.0668845,21.0,210.0,-1508.0
1772222367.0853179,22.0,209.0,-1509.0
1772222367.0933177,21.0,207.0,-1503.0
1772222367.1117475,22.0,208.0,-1494.0
1772222367.1197474,21.0,209.0,-1496.0
1772222367.1141248,20.0,207.0,-1497.0
1772222367.1221247,23.0,208.0,-1492.0
1772222367.1365952,23.0,208.0,-1490.0
1772222367.1445951,21.0,208.0,-1489.0
1772222367.1381571,20.0,209.0,-1491.0
1772222367.146157,22.0,208.0,-1492.0
1772222367.139794,22.0,208.0,-1487.0
1772222367.147794,21.0,209.0,-1484.0
1772222367.1412723,22.0,208.0,-1491.0
1772222367.1492722,22.0,207.0,-1492.0
1772222367.1443155,22.0,209.0,-1486.0
1772222367.1523154,22.0,210.0,-1486.0
1772222367.14875,23.0,209.0,-1492.0
1772222367.15675,23.0,208.0,-1494.0
1772222367.1513717,21.0,208.0,-1491.0
1772222367.1593716,22.0,207.0,-1489.0
1772222367.153544,22.0,209.0,-1496.0
1772222367.1615438,22.0,209.0,-1500.0
1772222367.1577833,22.0,209.0,-1494.0
1772222367.1657832,21.0,208.0,-1491.0
1772222367.1613677,21.0,209.0,-1498.0
1772222367.1693676,21.0,209.0,-1502.0
1772222367.174869,22.0,208.0,-1497.0
1772222367.182869,23.0,208.0,-1494.0
1772222367.1999307,21.0,209.0,-1498.0
1772222367.2079306,22.0,210.0,-1504.0
1772222367.2085922,21.0,208.0,-1503.0
1772222367.216592,23.0,210.0,-1502.0
1772222367.224116,20.0,209.0,-1507.0
1772222367.232116,22.0,207.0,-1512.0
1772222367.232648,22.0,210.0,-1511.0
1772222367.2406478,21.0,208.0,-1506.0
1772222367.25726,23.0,209.0,-1505.0
1772222367.26526,22.0,208.0,-1510.0
1772222367.2592661,19.0,207.0,-1507.0
1772222367.267266,21.0,209.0,-1503.0
1772222367.2608726,21.0,208.0,-1500.0
1772222367.2688725,21.0,207.0,-1505.0
1772222367.262285,23.0,208.0,-1502.0
1772222367.270285,21.0,209.0,-1494.0
1772222367.2643235,20.0,206.0,-1491.0
1772222367.2723234,21.0,207.0,-1495.0
1772222367.268267,22.0,206.0,-1496.0
1772222367.2762668,21.0,207.0,-1492.0
1772222367.2708623,22.0,209.0,-1487.0
1772222367.2788622,23.0,209.0,-1491.0
1772222367.2729175,23.0,208.0,-1496.0
1772222367.2809174,21.0,209.0,-1488.0
1772222367.27571,21.0,208.0,-1485.0
1772222367.28371,22.0,207.0,-1483.0
1772222367.2769184,22.0,208.0,-1487.0
1772222367.2849183,21.0,207.0,-1485.0
1772222367.2785962,21.0,207.0,-1482.0
1772222367.286596,22.0,209.0,-1483.0
1772222367.2818663,24.0,208.0,-1489.0
1772222367.2898662,24.0,208.0,-1487.0
1772222367.28491,23.0,208.0,-1482.0
1772222367.2929099,21.0,208.0,-1485.0
1772222367.3260705,22.0,207.0,-1490.0
1772222367.3340704,21.0,207.0,-1492.0
1772222367.3535032,21.0,207.0,-1488.0
1772222367.3615031,22.0,208.0,-1487.0
1772222367.361658,22.0,208.0,-1494.0
1772222367.369658,21.0,206.0,-1495.0
1772222367.3782904,22.0,207.0,-1492.0
1772222367.3862903,21.0,206.0,-1490.0
1772222367.380139,22.0,205.0,-1498.0
1772222367.388139,22.0,206.0,-1502.0
1772222367.3819845,21.0,207.0,-1499.0
1772222367.3899844,22.0,208.0,-1494.0
1772222367.3834136,23.0,209.0,-1500.0
1772222367.3914135,22.0,209.0,-1507.0
1772222367.3884246,22.0,206.0,-1507.0
1772222367.3964245,21.0,206.0,-1504.0
1772222367.3907952,21.0,207.0,-1507.0
1772222367.3987951,20.0,207.0,-1513.0
1772222367.3928506,21.0,206.0,-1511.0
1772222367.4008505,20.0,207.0,-1507.0
1772222367.3953164,19.0,208.0,-1505.0
1772222367.4033163,23.0,206.0,-1508.0
1772222367.3973866,22.0,205.0,-1505.0
1772222367.4053864,21.0,207.0,-1495.0
1772222367.4020853,24.0,208.0,-1496.0
1772222367.4100852,23.0,208.0,-1500.0
1772222367.4031072,22.0,208.0,-1500.0
1772222367.411107,22.0,207.0,-1491.0
1772222367.4503436,22.0,208.0,-1486.0
1772222367.4583435,24.0,208.0,-1492.0
1772222367.4528122,22.0,208.0,-1493.0
1772222367.460812,22.0,209.0,-1487.0
1772222367.4775782,23.0,209.0,-1487.0
1772222367.485578,23.0,208.0,-1493.0
1772222367.4872005,21.0,207.0,-1497.0
1772222367.4952004,22.0,207.0,-1493.0
1772222367.4942079,23.0,208.0,-1489.0
1772222367.5022078,23.0,209.0,-1497.0
1772222367.5241299,25.0,209.0,-1501.0
1772222367.5321298,22.0,209.0,-1496.0
1772222367.5261302,22.0,207.0,-1493.0
1772222367.53413,22.0,207.0,-1494.0
1772222367.5277278,21.0,207.0,-1500.0
1772222367.5357277,21.0,205.0,-1498.0
1772222367.5297582,21.0,206.0,-1493.0
1772222367.537758,21.0,206.0,-1495.0
1772222367.532688,22.0,208.0,-1497.0
1772222367.5406878,23.0,208.0,-1497.0
1772222367.5356643,23.0,207.0,-1493.0
1772222367.5436642,25.0,208.0,-1495.0
1772222367.5387392,22.0,210.0,-1501.0
1772222367.546739,20.0,207.0,-1499.0
1772222367.5413117,22.0,208.0,-1494.0
1772222367.5493116,24.0,208.0,-1494.0
1772222367.5433383,24.0,211.0,-1500.0
1772222367.5513382,24.0,209.0,-1505.0
1772222367.5464187,21.0,207.0,-1501.0
1772222367.5544186,22.0,209.0,-1500.0
1772222367.550901,21.0,208.0,-1507.0
1772222367.5589008,21.0,208.0,-1509.0
1772222367.5649078,22.0,208.0,-1506.0
1772222367.5729077,22.0,208.0,-1503.0
1772222367.5925741,24.0,208.0,-1507.0
1772222367.600574,21.0,207.0,-1511.0
1772222367.6026835,21.0,207.0,-1506.0
1772222367.6106834,22.0,207.0,-1498.0
1772222367.6230276,22.0,207.0,-1496.0
1772222367.6310275,23.0,207.0,-1500.0
1772222367.6436746,23.0,207.0,-1492.0
1772222367.6516745,23.0,207.0,-1485.0
1772222367.6456757,23.0,207.0,-1488.0
1772222367.6536756,24.0,207.0,-1489.0
1772222367.6472514,24.0,208.0,-1487.0
1772222367.6552513,21.0,207.0,-1483.0
1772222367.6489882,24.0,208.0,-1486.0
1772222367.6569881,22.0,209.0,-1488.0
1772222367.6493435,22.0,207.0,-1491.0
1772222367.6573434,21.0,207.0,-1485.0
1772222367.6541417,24.0,208.0,-1486.0
1772222367.6621416,23.0,209.0,-1491.0
1772222367.657373,22.0,208.0,-1491.0
1772222367.6653728,21.0,206.0,-1489.0
1772222367.6601524,21.0,206.0,-1489.0
1772222367.6681523,24.0,208.0,-1493.0
1772222367.6611693,24.0,207.0,-1497.0
1772222367.6691692,22.0,205.0,-1497.0
1772222367.6641502,21.0,206.0,-1495.0
1772222367.6721501,20.0,208.0,-1501.0
1772222367.6657572,19.0,207.0,-1503.0
1772222367.673757,20.0,206.0,-1499.0
1772222367.6678138,19.0,205.0,-1493.0
1772222367.6758137,22.0,205.0,-1496.0
1772222367.6696675,21.0,205.0,-1502.0
1772222367.6776674,21.0,205.0,-1501.0
1772222367.6720173,20.0,204.0,-1496.0
1772222367.6800172,20.0,205.0,-1500.0
1772222367.6750858,20.0,207.0,-1509.0
1772222367.6830857,24.0,207.0,-1508.0
1772222367.688598,20.0,206.0,-1502.0
1772222367.6965978,19.0,206.0,-1505.0
1772222367.716522,21.0,207.0,-1513.0
1772222367.7245219,23.0,207.0,-1515.0
1772222367.7249095,22.0,209.0,-1510.0
1772222367.7329094,22.0,207.0,-1506.0
1772222367.7417135,22.0,207.0,-1512.0
1772222367.7497134,21.0,207.0,-1513.0
1772222367.7629063,23.0,207.0,-1506.0
1772222367.7709062,22.0,207.0,-1503.0
1772222367.7639606,24.0,208.0,-1507.0
1772222367.7719605,23.0,207.0,-1507.0
1772222367.765723,23.0,207.0,-1498.0
1772222367.773723,22.0,206.0,-1496.0
1772222367.7671664,22.0,205.0,-1496.0
1772222367.7751663,22.0,206.0,-1498.0
1772222367.7720323,23.0,206.0,-1491.0
1772222367.7800322,21.0,207.0,-1486.0
1772222367.773578,22.0,208.0,-1486.0
1772222367.7815778,23.0,206.0,-1489.0
1772222367.7761562,23.0,208.0,-1487.0
1772222367.784156,21.0,206.0,-1481.0
1772222367.7781937,21.0,206.0,-1480.0
1772222367.7861936,22.0,206.0,-1483.0
1772222367.779195,22.0,206.0,-1481.0
1772222367.787195,24.0,207.0,-1478.0
1772222367.782123,22.0,207.0,-1479.0
1772222367.790123,22.0,205.0,-1483.0
1772222367.7844837,22.0,207.0,-1484.0
1772222367.7924836,22.0,207.0,-1482.0
1772222367.7875419,23.0,208.0,-1483.0
1772222367.7955418,24.0,208.0,-1488.0
1772222367.825199,23.0,209.0,-1491.0
1772222367.8331988,21.0,206.0,-1489.0
1772222367.847174,23.0,206.0,-1492.0
1772222367.8551738,23.0,208.0,-1491.0
1772222367.8557212,23.0,208.0,-1497.0
1772222367.8637211,24.0,207.0,-1496.0
1772222367.8708296,23.0,205.0,-1494.0
1772222367.8788295,22.0,208.0,-1499.0
1772222367.8723986,22.0,207.0,-1502.0
1772222367.8803985,23.0,205.0,-1501.0
1772222367.8738573,22.0,207.0,-1501.0
1772222367.8818572,23.0,205.0,-1504.0
1772222367.8783817,21.0,206.0,-1511.0
1772222367.8863816,22.0,208.0,-1511.0
1772222367.8819072,23.0,206.0,-1508.0
1772222367.8899071,23.0,205.0,-1508.0
1772222367.884966,23.0,207.0,-1515.0
1772222367.8929658,21.0,206.0,-1514.0
1772222367.8875284,22.0,208.0,-1507.0
1772222367.8955283,24.0,207.0,-1504.0
1772222367.8895938,24.0,207.0,-1508.0
1772222367.8975937,22.0,205.0,-1504.0
1772222367.891634,22.0,205.0,-1497.0
1772222367.899634,23.0,206.0,-1495.0
1772222367.905682,25.0,207.0,-1498.0
1772222367.913682,23.0,208.0,-1498.0
1772222367.929063,22.0,207.0,-1490.0
1772222367.937063,23.0,206.0,-1485.0
1772222367.9532077,23.0,207.0,-1488.0
1772222367.9612076,24.0,206.0,-1492.0
1772222367.9617765,24.0,206.0,-1486.0
1772222367.9697764,22.0,205.0,-1480.0
1772222367.9703217,24.0,207.0,-1485.0
1772222367.9783216,24.0,207.0,-1487.0
1772222367.9713347,22.0,205.0,-1483.0
1772222367.9793346,22.0,205.0,-1477.0
1772222367.9733276,22.0,207.0,-1481.0
1772222367.9813275,24.0,206.0,-1492.0
1772222367.9996054,22.0,206.0,-1492.0
1772222368.0076053,23.0,206.0,-1487.0
1772222368.001267,24.0,206.0,-1489.0
1772222368.0092669,23.0,203.0,-1492.0
1772222368.0023122,24.0,205.0,-1492.0
1772222368.010312,22.0,205.0,-1487.0
1772222368.004339,21.0,205.0,-1486.0
1772222368.0123389,22.0,204.0,-1491.0
1772222368.006595,23.0,204.0,-1494.0
1772222368.0145948,22.0,204.0,-1489.0
1772222368.0099227,22.0,204.0,-1488.0
1772222368.0179226,22.0,206.0,-1494.0
1772222368.012501,22.0,206.0,-1497.0
1772222368.020501,21.0,205.0,-1492.0
1772222368.0139177,22.0,205.0,-1491.0
1772222368.0219176,21.0,204.0,-1498.0
1772222368.0159898,23.0,205.0,-1504.0
1772222368.0239897,22.0,206.0,-1500.0
1772222368.019677,21.0,206.0,-1497.0
1772222368.0276768,23.0,207.0,-1503.0
1772222368.059995,22.0,204.0,-1506.0
1772222368.0679948,22.0,204.0,-1500.0
1772222368.068562,22.0,204.0,-1498.0
1772222368.076562,22.0,205.0,-1501.0
1772222368.0906782,22.0,206.0,-1508.0
1772222368.098678,21.0,205.0,-1506.0
1772222368.105565,22.0,205.0,-1500.0
1772222368.113565,20.0,205.0,-1498.0
1772222368.1071668,23.0,206.0,-1501.0
1772222368.1151667,22.0,206.0,-1501.0
1772222368.1089485,21.0,205.0,-1494.0
1772222368.1169484,21.0,206.0,-1491.0
1772222368.1105745,22.0,205.0,-1494.0
1772222368.1185744,22.0,203.0,-1493.0
1772222368.112133,23.0,205.0,-1486.0
1772222368.120133,23.0,205.0,-1482.0
1772222368.1147082,23.0,205.0,-1487.0
1772222368.122708,22.0,206.0,-1486.0
1772222368.1167305,20.0,206.0,-1480.0
1772222368.1247303,23.0,204.0,-1477.0
1772222368.1202843,22.0,204.0,-1483.0
1772222368.1282842,24.0,206.0,-1487.0
1772222368.1221602,23.0,206.0,-1485.0
1772222368.13016,25.0,207.0,-1484.0
1772222368.1247554,24.0,209.0,-1492.0
1772222368.1327553,22.0,206.0,-1501.0
1772222368.126815,23.0,205.0,-1498.0
1772222368.134815,24.0,205.0,-1494.0
1772222368.1294162,22.0,206.0,-1497.0
1772222368.1374161,21.0,205.0,-1501.0
1772222368.1314418,21.0,205.0,-1495.0
1772222368.1394417,23.0,205.0,-1488.0
1772222368.1494193,21.0,204.0,-1492.0
1772222368.1574192,22.0,204.0,-1497.0
1772222368.178926,22.0,205.0,-1494.0
1772222368.186926,22.0,206.0,-1490.0
1772222368.1923091,21.0,204.0,-1491.0
1772222368.200309,20.0,204.0,-1496.0
1772222368.2154796,22.0,205.0,-1498.0
1772222368.2234795,21.0,206.0,-1492.0
1772222368.2243283,20.0,204.0,-1492.0
1772222368.2323282,21.0,204.0,-1499.0
1772222368.2393763,22.0,205.0,-1502.0
1772222368.2473762,24.0,205.0,-1497.0
1772222368.2410645,21.0,206.0,-1496.0
1772222368.2490644,23.0,206.0,-1500.0
1772222368.248063,23.0,205.0,-1505.0
1772222368.256063,22.0,204.0,-1501.0
1772222368.2500627,22.0,205.0,-1498.0
1772222368.2580626,20.0,203.0,-1502.0
1772222368.2523713,20.0,204.0,-1504.0
1772222368.2603712,20.0,205.0,-1498.0
1772222368.2544012,23.0,205.0,-1494.0
1772222368.262401,23.0,206.0,-1494.0
1772222368.256486,24.0,206.0,-1497.0
1772222368.2644858,21.0,204.0,-1492.0
1772222368.2591474,22.0,203.0,-1487.0
1772222368.2671473,22.0,204.0,-1486.0
1772222368.275038,22.0,204.0,-1487.0
1772222368.283038,22.0,206.0,-1484.0
1772222368.3079598,22.0,205.0,-1475.0
1772222368.3159597,23.0,206.0,-1474.0
1772222368.329503,22.0,206.0,-1481.0
1772222368.337503,23.0,204.0,-1485.0
1772222368.33996,23.0,204.0,-1481.0
1772222368.34796,21.0,204.0,-1480.0
1772222368.3575015,24.0,205.0,-1487.0
1772222368.3655014,24.0,205.0,-1490.0
1772222368.3589869,21.0,205.0,-1489.0
1772222368.3669868,21.0,203.0,-1489.0
1772222368.360765,21.0,202.0,-1496.0
1772222368.3687649,21.0,203.0,-1500.0
1772222368.362415,20.0,201.0,-1499.0
1772222368.370415,20.0,202.0,-1496.0
1772222368.367445,20.0,202.0,-1497.0
1772222368.375445,18.0,201.0,-1499.0
1772222368.3725078,21.0,201.0,-1494.0
1772222368.3805077,20.0,201.0,-1488.0
1772222368.416111,20.0,202.0,-1491.0
1772222368.424111,22.0,202.0,-1495.0
1772222368.4641984,21.0,201.0,-1493.0
1772222368.4721982,18.0,200.0,-1489.0
1772222368.4731894,21.0,202.0,-1492.0
1772222368.4811893,22.0,202.0,-1496.0
1772222368.4958522,21.0,203.0,-1495.0
1772222368.5038521,20.0,203.0,-1493.0
1772222368.498346,21.0,203.0,-1492.0
1772222368.506346,23.0,203.0,-1500.0
1772222368.4999378,19.0,202.0,-1501.0
1772222368.5079377,21.0,203.0,-1496.0
1772222368.5029917,21.0,204.0,-1494.0
1772222368.5109916,20.0,203.0,-1501.0
1772222368.5067255,18.0,202.0,-1502.0
1772222368.5147254,20.0,203.0,-1498.0
1772222368.5095596,22.0,203.0,-1497.0
1772222368.5175595,24.0,202.0,-1501.0
1772222368.5118632,21.0,202.0,-1501.0
1772222368.5198631,19.0,202.0,-1494.0
1772222368.513903,20.0,203.0,-1489.0
1772222368.5219028,19.0,203.0,-1491.0
1772222368.515469,19.0,203.0,-1492.0
1772222368.523469,21.0,202.0,-1487.0
1772222368.5180697,21.0,202.0,-1481.0
1772222368.5260696,21.0,202.0,-1481.0
1772222368.5201147,23.0,204.0,-1484.0
1772222368.5281146,21.0,204.0,-1481.0
1772222368.5216444,18.0,202.0,-1477.0
1772222368.5296443,21.0,203.0,-1478.0
1772222368.5240853,21.0,203.0,-1486.0
1772222368.5320852,22.0,204.0,-1485.0
1772222368.5271378,21.0,203.0,-1483.0
1772222368.5351377,21.0,202.0,-1488.0
1772222368.529158,21.0,203.0,-1499.0
1772222368.537158,19.0,202.0,-1501.0
1772222368.5686553,21.0,202.0,-1495.0
1772222368.5766551,21.0,203.0,-1495.0
1772222368.5716562,21.0,203.0,-1500.0
1772222368.5796561,20.0,204.0,-1500.0
1772222368.5815487,20.0,202.0,-1493.0
1772222368.5895486,21.0,202.0,-1490.0
1772222368.583119,20.0,201.0,-1494.0
1772222368.5911188,21.0,202.0,-1497.0
1772222368.6254354,20.0,202.0,-1492.0
1772222368.6334352,20.0,201.0,-1488.0
1772222368.6428297,21.0,204.0,-1492.0
1772222368.6508296,17.0,203.0,-1497.0
1772222368.644342,20.0,203.0,-1496.0
1772222368.6523418,21.0,203.0,-1495.0
1772222368.6458132,20.0,203.0,-1499.0
1772222368.6538131,20.0,202.0,-1505.0
1772222368.6515584,21.0,200.0,-1503.0
1772222368.6595583,20.0,202.0,-1498.0
1772222368.6555827,21.0,204.0,-1503.0
1772222368.6635826,21.0,205.0,-1509.0
1772222368.6722348,21.0,202.0,-1509.0
1772222368.6802347,21.0,203.0,-1502.0
1772222368.705013,19.0,200.0,-1502.0
1772222368.713013,18.0,201.0,-1505.0
1772222368.7230995,18.0,201.0,-1501.0
1772222368.7310994,19.0,201.0,-1492.0
1772222368.7453558,19.0,202.0,-1493.0
1772222368.7533557,20.0,201.0,-1497.0
1772222368.7466416,20.0,202.0,-1496.0
1772222368.7546415,22.0,200.0,-1488.0
1772222368.748378,23.0,203.0,-1485.0
1772222368.756378,19.0,202.0,-1489.0
1772222368.7498353,19.0,203.0,-1491.0
1772222368.7578351,18.0,201.0,-1487.0
1772222368.752375,20.0,201.0,-1485.0
1772222368.7603748,21.0,201.0,-1490.0
1772222368.7549045,19.0,200.0,-1495.0
1772222368.7629044,17.0,201.0,-1492.0
1772222368.7584667,20.0,201.0,-1490.0
1772222368.7664666,20.0,199.0,-1493.0
1772222368.760653,18.0,200.0,-1497.0
1772222368.768653,20.0,200.0,-1491.0
1772222368.7643645,20.0,200.0,-1485.0
1772222368.7723644,21.0,202.0,-1484.0
1772222368.7657628,19.0,201.0,-1486.0
1772222368.7737627,21.0,200.0,-1485.0
1772222368.7675297,23.0,201.0,-1481.0
1772222368.7755296,20.0,203.0,-1484.0
1772222368.7685616,20.0,203.0,-1492.0
1772222368.7765615,20.0,203.0,-1491.0
1772222368.7855868,21.0,201.0,-1487.0
1772222368.7935867,21.0,202.0,-1487.0
1772222368.7870421,22.0,203.0,-1491.0
1772222368.795042,21.0,203.0,-1493.0
1772222368.8214042,20.0,203.0,-1488.0
1772222368.829404,20.0,202.0,-1487.0
1772222368.8399458,20.0,201.0,-1493.0
1772222368.8479457,19.0,202.0,-1496.0
1772222368.863022,20.0,202.0,-1493.0
1772222368.871022,22.0,202.0,-1490.0
1772222368.864563,19.0,202.0,-1495.0
1772222368.872563,21.0,202.0,-1502.0
1772222368.8666303,22.0,203.0,-1500.0
1772222368.8746302,22.0,202.0,-1496.0
1772222368.868314,22.0,202.0,-1500.0
1772222368.876314,20.0,202.0,-1503.0
1772222368.8721783,21.0,200.0,-1500.0
1772222368.8801782,20.0,203.0,-1496.0
1772222368.875027,19.0,203.0,-1496.0
1772222368.8830268,19.0,202.0,-1499.0
1772222368.8782482,22.0,202.0,-1495.0
1772222368.886248,21.0,202.0,-1487.0
1772222368.8810403,21.0,202.0,-1487.0
1772222368.8890402,21.0,202.0,-1490.0
1772222368.8856578,19.0,201.0,-1488.0
1772222368.8936577,20.0,202.0,-1482.0
1772222368.8868055,21.0,203.0,-1481.0
1772222368.8948054,22.0,203.0,-1485.0
1772222368.9029038,21.0,202.0,-1488.0
1772222368.9109037,21.0,203.0,-1483.0
1772222368.9053278,20.0,203.0,-1483.0
1772222368.9133277,23.0,203.0,-1489.0
1772222368.9366407,19.0,203.0,-1492.0
1772222368.9446406,20.0,203.0,-1492.0
1772222368.9396455,19.0,203.0,-1492.0
1772222368.9476454,20.0,201.0,-1496.0
1772222368.9410686,19.0,200.0,-1501.0
1772222368.9490685,20.0,201.0,-1498.0
1772222368.9430935,21.0,203.0,-1491.0
1772222368.9510934,21.0,201.0,-1490.0
1772222368.9570997,20.0,204.0,-1491.0
1772222368.9650996,21.0,203.0,-1488.0
1772222368.9908626,20.0,203.0,-1482.0
1772222368.9988625,21.0,204.0,-1485.0
1772222368.9929185,22.0,204.0,-1489.0
1772222369.0009184,22.0,204.0,-1488.0
1772222369.002361,26.0,207.0,-1482.0
1772222369.010361,23.0,204.0,-1483.0
1772222369.0238614,23.0,206.0,-1488.0
1772222369.0318613,25.0,207.0,-1489.0
1772222369.0259185,25.0,206.0,-1484.0
1772222369.0339184,25.0,206.0,-1481.0
1772222369.0274763,24.0,207.0,-1490.0
1772222369.0354762,24.0,206.0,-1492.0
1772222369.0305245,23.0,207.0,-1486.0
1772222369.0385244,24.0,207.0,-1485.0
1772222369.033111,25.0,205.0,-1491.0
1772222369.041111,25.0,205.0,-1495.0
1772222369.0340998,24.0,206.0,-1493.0
1772222369.0420997,25.0,207.0,-1490.0
1772222369.0361211,24.0,206.0,-1494.0
1772222369.044121,24.0,205.0,-1498.0
1772222369.0381188,25.0,205.0,-1486.0
1772222369.0461187,25.0,204.0,-1489.0
1772222369.0396166,24.0,203.0,-1489.0
1772222369.0476165,24.0,205.0,-1490.0
1772222369.0406544,25.0,206.0,-1480.0
1772222369.0486543,26.0,207.0,-1490.0
1772222369.04515,26.0,207.0,-1496.0
1772222369.05315,25.0,210.0,-1493.0
1772222369.0478938,25.0,206.0,-1485.0
1772222369.0558937,25.0,204.0,-1485.0
1772222369.049952,22.0,204.0,-1490.0
1772222369.057952,24.0,205.0,-1486.0
1772222369.0514238,24.0,206.0,-1482.0
1772222369.0594237,24.0,206.0,-1486.0
1772222369.0674746,25.0,206.0,-1492.0
1772222369.0754745,25.0,205.0,-1490.0
1772222369.1077917,25.0,206.0,-1488.0
1772222369.1157916,25.0,208.0,-1492.0
1772222369.1325626,25.0,208.0,-1500.0
1772222369.1405625,24.0,206.0,-1503.0
1772222369.1399896,25.0,205.0,-1496.0
1772222369.1479895,23.0,206.0,-1497.0
1772222369.1545243,24.0,207.0,-1502.0
1772222369.1625242,24.0,206.0,-1502.0
1772222369.1565275,24.0,205.0,-1495.0
1772222369.1645274,25.0,208.0,-1492.0
1772222369.1581435,25.0,206.0,-1494.0
1772222369.1661434,23.0,205.0,-1493.0
1772222369.1597033,24.0,207.0,-1485.0
1772222369.1677032,24.0,207.0,-1479.0
1772222369.161193,23.0,207.0,-1479.0
1772222369.1691928,24.0,206.0,-1479.0
1772222369.16343,26.0,204.0,-1476.0
1772222369.1714299,25.0,206.0,-1468.0
1772222369.1681478,22.0,206.0,-1468.0
1772222369.1761477,23.0,208.0,-1471.0
1772222369.1717255,24.0,206.0,-1470.0
1772222369.1797254,25.0,205.0,-1465.0
1772222369.1739154,26.0,206.0,-1470.0
1772222369.1819153,24.0,206.0,-1479.0
1772222369.1764078,25.0,203.0,-1476.0
1772222369.1844077,22.0,204.0,-1471.0
1772222369.1779485,21.0,205.0,-1475.0
1772222369.1859484,24.0,206.0,-1483.0
1772222369.1953313,23.0,206.0,-1486.0
1772222369.2033312,23.0,205.0,-1483.0
1772222369.2240248,24.0,204.0,-1482.0
1772222369.2320247,23.0,206.0,-1488.0
1772222369.2481706,22.0,205.0,-1488.0
1772222369.2561705,24.0,204.0,-1481.0
1772222369.2835445,25.0,205.0,-1476.0
1772222369.2915444,24.0,204.0,-1483.0
1772222369.2855575,25.0,205.0,-1487.0
1772222369.2935574,23.0,206.0,-1482.0
1772222369.2870858,23.0,205.0,-1477.0
1772222369.2950857,24.0,205.0,-1478.0
1772222369.2885385,23.0,204.0,-1484.0
1772222369.2965384,23.0,204.0,-1482.0
1772222369.2902896,23.0,205.0,-1479.0
1772222369.2982895,24.0,203.0,-1483.0
1772222369.2923343,25.0,204.0,-1489.0
1772222369.3003342,24.0,204.0,-1489.0
1772222369.293536,25.0,206.0,-1485.0
1772222369.3015358,24.0,206.0,-1490.0
1772222369.297979,24.0,207.0,-1496.0
1772222369.305979,26.0,206.0,-1494.0
1772222369.303301,23.0,205.0,-1490.0
1772222369.311301,26.0,206.0,-1489.0
1772222369.3073082,23.0,205.0,-1497.0
1772222369.315308,23.0,204.0,-1495.0
1772222369.3472557,23.0,205.0,-1488.0
1772222369.3552556,25.0,206.0,-1486.0
1772222369.38726,23.0,204.0,-1490.0
1772222369.3952599,22.0,205.0,-1491.0
1772222369.403362,24.0,205.0,-1480.0
1772222369.411362,24.0,206.0,-1475.0
1772222369.4109151,23.0,203.0,-1478.0
1772222369.418915,21.0,205.0,-1481.0
1772222369.4380085,24.0,206.0,-1473.0
1772222369.4460084,25.0,206.0,-1466.0
1772222369.4394684,21.0,203.0,-1469.0
1772222369.4474683,23.0,204.0,-1470.0
1772222369.4404888,23.0,205.0,-1469.0
1772222369.4484887,22.0,205.0,-1467.0
1772222369.4422824,25.0,204.0,-1471.0
1772222369.4502823,23.0,203.0,-1476.0
1772222369.4462035,21.0,203.0,-1475.0
1772222369.4542034,21.0,204.0,-1473.0
1772222369.449785,22.0,205.0,-1476.0
1772222369.457785,22.0,203.0,-1483.0
1772222369.451828,21.0,203.0,-1484.0
1772222369.459828,23.0,203.0,-1477.0
1772222369.4554698,23.0,205.0,-1474.0
1772222369.4634697,22.0,203.0,-1480.0
1772222369.457995,22.0,203.0,-1478.0
1772222369.4659948,22.0,203.0,-1473.0
1772222369.4647245,22.0,203.0,-1472.0
1772222369.4727244,23.0,204.0,-1476.0
1772222369.4677792,23.0,204.0,-1480.0
1772222369.475779,22.0,203.0,-1473.0
1772222369.4827743,22.0,202.0,-1471.0
1772222369.4907742,21.0,203.0,-1475.0
1772222369.5223143,21.0,203.0,-1478.0
1772222369.5303142,20.0,204.0,-1477.0
1772222369.536832,23.0,202.0,-1473.0
1772222369.544832,24.0,202.0,-1481.0
1772222369.5779114,21.0,202.0,-1488.0
1772222369.5859113,20.0,202.0,-1487.0
1772222369.5947392,21.0,202.0,-1484.0
1772222369.602739,23.0,202.0,-1488.0
1772222369.596334,22.0,204.0,-1493.0
1772222369.6043339,21.0,203.0,-1492.0
1772222369.597546,21.0,203.0,-1487.0
1772222369.605546,22.0,203.0,-1488.0
1772222369.5995674,22.0,204.0,-1492.0
1772222369.6075673,23.0,203.0,-1490.0
1772222369.604526,21.0,203.0,-1482.0
1772222369.612526,20.0,201.0,-1483.0
1772222369.6065905,23.0,203.0,-1488.0
1772222369.6145904,22.0,203.0,-1486.0
1772222369.609924,22.0,203.0,-1479.0
1772222369.617924,23.0,204.0,-1476.0
1772222369.610946,22.0,203.0,-1480.0
1772222369.6189458,21.0,202.0,-1477.0
1772222369.6216547,21.0,203.0,-1470.0
1772222369.6296546,22.0,203.0,-1463.0
1772222369.6356626,23.0,204.0,-1468.0
1772222369.6436625,22.0,203.0,-1471.0
1772222369.6676595,19.0,204.0,-1471.0
1772222369.6756594,22.0,204.0,-1469.0
1772222369.669659,23.0,202.0,-1474.0
1772222369.6776588,25.0,204.0,-1480.0
1772222369.6720586,24.0,204.0,-1479.0
1772222369.6800585,21.0,203.0,-1477.0
1772222369.721043,23.0,204.0,-1484.0
1772222369.729043,24.0,204.0,-1489.0
1772222369.723659,23.0,204.0,-1486.0
1772222369.731659,23.0,204.0,-1479.0
1772222369.7546947,23.0,205.0,-1480.0
1772222369.7626946,23.0,205.0,-1484.0
1772222369.7562895,24.0,203.0,-1479.0
1772222369.7642894,25.0,203.0,-1474.0
1772222369.7579854,24.0,203.0,-1475.0
1772222369.7659853,23.0,205.0,-1480.0
1772222369.7612576,22.0,205.0,-1478.0
1772222369.7692575,23.0,205.0,-1475.0
1772222369.765082,23.0,206.0,-1475.0
1772222369.7730818,22.0,204.0,-1480.0
1772222369.7691166,23.0,204.0,-1481.0
1772222369.7771165,25.0,205.0,-1478.0
1772222369.7717817,25.0,205.0,-1472.0
1772222369.7797816,21.0,205.0,-1476.0
1772222369.8128715,22.0,204.0,-1486.0
1772222369.8208714,23.0,205.0,-1487.0
1772222369.8222558,22.0,205.0,-1485.0
1772222369.8302557,23.0,206.0,-1490.0
1772222369.82996,21.0,204.0,-1496.0
1772222369.83796,21.0,204.0,-1492.0
1772222369.8690207,22.0,203.0,-1487.0
1772222369.8770206,23.0,204.0,-1492.0
1772222369.8763576,22.0,203.0,-1497.0
1772222369.8843575,21.0,201.0,-1491.0
1772222369.9046738,22.0,203.0,-1483.0
1772222369.9126737,21.0,202.0,-1482.0
1772222369.9063766,20.0,202.0,-1485.0
1772222369.9143765,19.0,200.0,-1482.0
1772222369.9080868,22.0,198.0,-1474.0
1772222369.9160867,18.0,199.0,-1470.0
1772222369.9095712,16.0,199.0,-1472.0
1772222369.917571,18.0,200.0,-1468.0
1772222369.9126174,19.0,201.0,-1460.0
1772222369.9206173,19.0,200.0,-1461.0
1772222369.9147058,18.0,199.0,-1468.0
1772222369.9227057,19.0,199.0,-1471.0
1772222369.916718,20.0,199.0,-1469.0
1772222369.924718,19.0,199.0,-1470.0
1772222369.9200313,18.0,200.0,-1477.0
1772222369.9280312,19.0,200.0,-1483.0
1772222369.9227111,18.0,201.0,-1480.0
1772222369.930711,19.0,199.0,-1477.0
1772222369.926018,19.0,198.0,-1485.0
1772222369.934018,20.0,200.0,-1489.0
1772222369.9281487,20.0,199.0,-1488.0
1772222369.9361486,19.0,200.0,-1483.0
1772222369.9322042,21.0,200.0,-1483.0
1772222369.9402041,19.0,201.0,-1486.0
1772222369.9368415,18.0,199.0,-1481.0
1772222369.9448414,19.0,198.0,-1476.0
1772222369.9512763,19.0,199.0,-1475.0
1772222369.9592762,19.0,199.0,-1481.0
1772222369.9752402,18.0,199.0,-1479.0
1772222369.9832401,19.0,200.0,-1473.0
1772222370.022354,18.0,201.0,-1474.0
1772222370.0303538,20.0,201.0,-1481.0
1772222370.0238848,20.0,200.0,-1486.0
1772222370.0318847,17.0,198.0,-1481.0
1772222370.0475504,18.0,199.0,-1483.0
1772222370.0555503,20.0,199.0,-1491.0
1772222370.0491338,19.0,199.0,-1493.0
1772222370.0571337,17.0,199.0,-1491.0
1772222370.0506496,18.0,200.0,-1489.0
1772222370.0586495,21.0,200.0,-1495.0
1772222370.0523493,18.0,200.0,-1497.0
1772222370.0603492,19.0,198.0,-1489.0
1772222370.0573828,18.0,199.0,-1486.0
1772222370.0653827,16.0,200.0,-1486.0
1772222370.059736,18.0,200.0,-1490.0
1772222370.067736,17.0,199.0,-1483.0
1772222370.0612636,20.0,199.0,-1474.0
1772222370.0692635,20.0,200.0,-1474.0
1772222370.063291,20.0,200.0,-1478.0
1772222370.071291,18.0,199.0,-1471.0
1772222370.0661533,19.0,200.0,-1465.0
1772222370.0741532,18.0,199.0,-1464.0
1772222370.0863647,20.0,199.0,-1468.0
1772222370.0943646,17.0,200.0,-1465.0
1772222370.1090758,20.0,201.0,-1462.0
1772222370.1170757,20.0,202.0,-1466.0
1772222370.1382842,19.0,202.0,-1469.0
1772222370.146284,21.0,200.0,-1470.0
1772222370.141813,19.0,201.0,-1467.0
1772222370.149813,19.0,202.0,-1467.0
1772222370.1755722,20.0,201.0,-1475.0
1772222370.183572,21.0,202.0,-1478.0
1772222370.1776507,21.0,202.0,-1476.0
1772222370.1856506,21.0,201.0,-1475.0
1772222370.1792574,22.0,203.0,-1478.0
1772222370.1872573,20.0,202.0,-1481.0
1772222370.1807544,21.0,201.0,-1475.0
1772222370.1887543,21.0,202.0,-1470.0
1772222370.1843255,21.0,203.0,-1472.0
1772222370.1923254,21.0,202.0,-1473.0
1772222370.1886916,21.0,203.0,-1467.0
1772222370.1966915,19.0,202.0,-1464.0
1772222370.1917465,20.0,202.0,-1468.0
1772222370.1997464,20.0,200.0,-1470.0
1772222370.196544,21.0,201.0,-1469.0
1772222370.2045438,20.0,202.0,-1466.0
1772222370.2580929,20.0,202.0,-1469.0
1772222370.2660928,20.0,202.0,-1478.0
1772222370.2601397,20.0,202.0,-1482.0
1772222370.2681396,21.0,202.0,-1479.0
1772222370.2832658,21.0,203.0,-1482.0
1772222370.2912657,19.0,201.0,-1490.0
1772222370.2848744,20.0,202.0,-1493.0
1772222370.2928743,21.0,201.0,-1488.0
1772222370.286869,21.0,201.0,-1486.0
1772222370.294869,21.0,202.0,-1492.0
1772222370.28815,21.0,202.0,-1493.0
1772222370.29615,20.0,203.0,-1485.0
1772222370.2900996,20.0,201.0,-1478.0
1772222370.2980995,21.0,201.0,-1483.0
1772222370.2916696,21.0,202.0,-1486.0
1772222370.2996695,20.0,203.0,-1479.0
1772222370.2940636,19.0,204.0,-1473.0
1772222370.3020635,20.0,202.0,-1475.0
1772222370.2991781,20.0,202.0,-1478.0
1772222370.307178,21.0,202.0,-1471.0
1772222370.3017402,21.0,202.0,-1463.0
1772222370.30974,21.0,203.0,-1465.0
1772222370.3048182,21.0,202.0,-1472.0
1772222370.312818,22.0,203.0,-1471.0
1772222370.3082306,20.0,202.0,-1467.0
1772222370.3162305,23.0,202.0,-1471.0
1772222370.3121192,22.0,202.0,-1478.0
1772222370.3201191,21.0,202.0,-1479.0
1772222370.3131585,20.0,201.0,-1473.0
1772222370.3211584,20.0,202.0,-1475.0
1772222370.357302,20.0,202.0,-1484.0
1772222370.3653018,20.0,202.0,-1484.0
1772222370.3879168,18.0,202.0,-1476.0
1772222370.3959167,21.0,202.0,-1472.0
1772222370.419705,21.0,202.0,-1479.0
1772222370.4277048,20.0,201.0,-1480.0
1772222370.421366,22.0,203.0,-1474.0
1772222370.4293659,20.0,200.0,-1471.0
1772222370.4231045,20.0,200.0,-1474.0
1772222370.4311044,20.0,201.0,-1476.0
1772222370.425941,21.0,201.0,-1470.0
1772222370.433941,22.0,201.0,-1465.0
1772222370.4279706,23.0,201.0,-1470.0
1772222370.4359705,22.0,204.0,-1476.0
1772222370.4315152,22.0,203.0,-1477.0
1772222370.439515,20.0,202.0,-1476.0
1772222370.433837,22.0,202.0,-1480.0
1772222370.4418368,20.0,202.0,-1486.0
1772222370.4375596,23.0,203.0,-1488.0
1772222370.4455595,22.0,203.0,-1486.0
1772222370.4396324,21.0,203.0,-1488.0
1772222370.4476323,22.0,202.0,-1493.0
1772222370.4412773,19.0,202.0,-1494.0
1772222370.4492772,19.0,202.0,-1490.0
1772222370.4798384,22.0,203.0,-1486.0
1772222370.4878383,21.0,205.0,-1492.0
1772222370.491835,22.0,203.0,-1491.0
1772222370.499835,22.0,204.0,-1485.0
1772222370.5248284,21.0,202.0,-1482.0
1772222370.5328283,23.0,203.0,-1484.0
1772222370.548161,22.0,204.0,-1484.0
1772222370.556161,21.0,202.0,-1477.0
1772222370.5496888,19.0,203.0,-1475.0
1772222370.5576887,19.0,202.0,-1477.0
1772222370.551091,21.0,203.0,-1477.0
1772222370.5590909,22.0,202.0,-1468.0
1772222370.552719,23.0,203.0,-1465.0
1772222370.560719,22.0,203.0,-1471.0
1772222370.5570161,21.0,203.0,-1475.0
1772222370.565016,21.0,202.0,-1473.0
1772222370.5593083,21.0,203.0,-1468.0
1772222370.5673082,20.0,203.0,-1474.0
1772222370.5625403,22.0,202.0,-1481.0
1772222370.5705402,22.0,202.0,-1478.0
1772222370.5645733,20.0,202.0,-1476.0
1772222370.5725732,20.0,203.0,-1482.0
1772222370.5655804,21.0,202.0,-1488.0
1772222370.5735803,20.0,202.0,-1486.0
1772222370.5681186,20.0,202.0,-1481.0
1772222370.5761185,20.0,204.0,-1478.0
1772222370.5690973,17.0,201.0,-1479.0
1772222370.5770972,19.0,200.0,-1478.0
1772222370.5872571,20.0,200.0,-1470.0
1772222370.595257,20.0,201.0,-1470.0
1772222370.612501,23.0,203.0,-1473.0
1772222370.6205008,22.0,203.0,-1473.0
1772222370.6227603,18.0,201.0,-1467.0
1772222370.6307602,19.0,201.0,-1462.0
1772222370.6247568,20.0,203.0,-1468.0
1772222370.6327567,20.0,203.0,-1471.0
1772222370.6491084,21.0,202.0,-1468.0
1772222370.6571083,21.0,204.0,-1468.0
1772222370.675764,22.0,203.0,-1477.0
1772222370.683764,21.0,202.0,-1482.0
1772222370.6777651,20.0,201.0,-1482.0
1772222370.685765,21.0,203.0,-1480.0
1772222370.6796403,22.0,204.0,-1486.0
1772222370.6876402,23.0,203.0,-1497.0
1772222370.681202,23.0,205.0,-1495.0
1772222370.6892018,23.0,206.0,-1491.0
1772222370.683253,25.0,207.0,-1492.0
1772222370.691253,26.0,207.0,-1498.0
1772222370.6862633,26.0,207.0,-1495.0
1772222370.6942632,29.0,210.0,-1487.0
1772222370.6888363,31.0,213.0,-1485.0
1772222370.6968362,31.0,214.0,-1486.0
1772222370.6902483,33.0,213.0,-1484.0
1772222370.6982481,32.0,212.0,-1476.0
1772222370.6924963,31.0,212.0,-1474.0
1772222370.7004962,32.0,213.0,-1475.0
1772222370.6942713,30.0,213.0,-1473.0
1772222370.7022712,31.0,212.0,-1463.0
1772222370.6966398,32.0,213.0,-1461.0
1772222370.7046397,31.0,212.0,-1463.0
1772222370.7005036,30.0,211.0,-1464.0
1772222370.7085035,29.0,211.0,-1460.0
1772222370.7032635,30.0,212.0,-1463.0
1772222370.7112634,28.0,211.0,-1468.0
1772222370.7042825,27.0,210.0,-1473.0
1772222370.7122824,27.0,210.0,-1475.0
1772222370.70731,26.0,209.0,-1474.0
1772222370.7153099,27.0,208.0,-1483.0
1772222370.7213063,28.0,209.0,-1491.0
1772222370.7293062,28.0,209.0,-1490.0
1772222370.7553692,27.0,210.0,-1486.0
1772222370.763369,26.0,211.0,-1484.0
1772222370.757372,27.0,211.0,-1487.0
1772222370.7653718,28.0,213.0,-1481.0
1772222370.7912412,28.0,215.0,-1473.0
1772222370.799241,29.0,216.0,-1471.0
1772222370.8092196,33.0,215.0,-1475.0
1772222370.8172195,33.0,217.0,-1473.0
1772222370.8108568,33.0,219.0,-1467.0
1772222370.8188567,39.0,219.0,-1465.0
1772222370.8123126,40.0,224.0,-1471.0
1772222370.8203125,39.0,225.0,-1473.0
1772222370.8169434,41.0,226.0,-1470.0
1772222370.8249433,46.0,232.0,-1474.0
1772222370.8179686,49.0,233.0,-1482.0
1772222370.8259685,49.0,235.0,-1488.0
1772222370.8209715,51.0,239.0,-1487.0
1772222370.8289714,52.0,241.0,-1487.0
1772222370.825191,51.0,243.0,-1495.0
1772222370.833191,54.0,245.0,-1502.0
1772222370.8262098,54.0,244.0,-1501.0
1772222370.8342097,53.0,242.0,-1497.0
1772222370.8285947,52.0,239.0,-1499.0
1772222370.8365946,54.0,238.0,-1502.0
1772222370.8316467,57.0,239.0,-1495.0
1772222370.8396466,51.0,243.0,-1487.0
1772222370.833133,50.0,243.0,-1486.0
1772222370.8411329,51.0,237.0,-1488.0
1772222370.835252,51.0,236.0,-1485.0
1772222370.843252,51.0,238.0,-1477.0
1772222370.8362737,50.0,237.0,-1473.0
1772222370.8442736,47.0,234.0,-1476.0
1772222370.8384554,48.0,235.0,-1477.0
1772222370.8464553,45.0,235.0,-1467.0
1772222370.843123,46.0,236.0,-1465.0
1772222370.8511229,44.0,237.0,-1470.0
1772222370.8464522,41.0,234.0,-1470.0
1772222370.8544521,44.0,231.0,-1466.0
1772222370.8610573,48.0,227.0,-1465.0
1772222370.8690572,42.0,227.0,-1470.0
1772222370.869195,44.0,231.0,-1474.0
1772222370.877195,43.0,232.0,-1471.0
1772222370.8950605,40.0,226.0,-1469.0
1772222370.9030604,40.0,224.0,-1477.0
1772222370.8973892,39.0,227.0,-1482.0
1772222370.905389,38.0,229.0,-1481.0
1772222370.907433,40.0,234.0,-1477.0
1772222370.915433,42.0,229.0,-1479.0
1772222370.9339752,40.0,224.0,-1480.0
1772222370.941975,38.0,222.0,-1476.0
1772222370.9359844,37.0,219.0,-1467.0
1772222370.9439843,38.0,221.0,-1464.0
1772222370.9461792,39.0,224.0,-1465.0
1772222370.954179,38.0,224.0,-1458.0
1772222370.9661033,37.0,222.0,-1450.0
1772222370.9741032,39.0,222.0,-1450.0
1772222370.9677558,40.0,225.0,-1458.0
1772222370.9757557,40.0,225.0,-1459.0
1772222370.9694686,40.0,224.0,-1458.0
1772222370.9774685,39.0,224.0,-1464.0
1772222370.9739926,39.0,223.0,-1473.0
1772222370.9819925,40.0,225.0,-1479.0
1772222370.976038,41.0,228.0,-1479.0
1772222370.9840379,39.0,225.0,-1481.0
1772222370.978288,37.0,223.0,-1492.0
1772222370.9862878,36.0,223.0,-1498.0
1772222370.9805148,36.0,221.0,-1494.0
1772222370.9885147,36.0,219.0,-1492.0
1772222370.9830453,35.0,221.0,-1495.0
1772222370.9910452,33.0,224.0,-1496.0
1772222370.985103,32.0,228.0,-1490.0
1772222370.9931028,32.0,223.0,-1482.0
1772222370.9885814,30.0,216.0,-1481.0
1772222370.9965813,28.0,218.0,-1482.0
1772222371.0086093,30.0,217.0,-1477.0
1772222371.0166092,32.0,214.0,-1468.0
1772222371.039131,36.0,219.0,-1466.0
1772222371.0471308,33.0,221.0,-1468.0
1772222371.0528176,36.0,218.0,-1463.0
1772222371.0608175,34.0,212.0,-1459.0
1772222371.0588906,32.0,213.0,-1454.0
1772222371.0668905,32.0,216.0,-1456.0
1772222371.1236749,31.0,213.0,-1459.0
1772222371.1316748,30.0,215.0,-1455.0
1772222371.1252046,32.0,222.0,-1455.0
1772222371.1332045,37.0,221.0,-1461.0
1772222371.1270897,41.0,212.0,-1465.0
1772222371.1350896,36.0,212.0,-1463.0
1772222371.1286032,37.0,217.0,-1466.0
1772222371.136603,40.0,228.0,-1472.0
1772222371.1334934,39.0,220.0,-1478.0
1772222371.1414933,31.0,211.0,-1478.0
1772222371.134531,31.0,209.0,-1478.0
1772222371.142531,34.0,212.0,-1482.0
1772222371.136734,33.0,214.0,-1483.0
1772222371.144734,32.0,218.0,-1477.0
1772222371.1400595,30.0,218.0,-1471.0
1772222371.1480594,34.0,211.0,-1470.0
1772222371.1430063,37.0,209.0,-1472.0
1772222371.1510062,30.0,206.0,-1467.0
1772222371.1452518,26.0,205.0,-1463.0
1772222371.1532516,27.0,210.0,-1464.0
1772222371.1482928,27.0,212.0,-1472.0
1772222371.1562927,31.0,209.0,-1472.0
1772222371.1620429,33.0,209.0,-1469.0
1772222371.1700428,30.0,208.0,-1471.0
1772222371.1641104,28.0,212.0,-1479.0
1772222371.1721103,28.0,210.0,-1482.0
1772222371.1921186,30.0,209.0,-1483.0
1772222371.2001185,33.0,210.0,-1487.0
1772222371.207395,34.0,214.0,-1496.0
1772222371.215395,32.0,213.0,-1502.0
1772222371.2094076,31.0,212.0,-1497.0
1772222371.2174075,31.0,212.0,-1495.0
1772222371.2197988,32.0,214.0,-1496.0
1772222371.2277987,32.0,211.0,-1500.0
1772222371.2475374,32.0,208.0,-1493.0
1772222371.2555373,32.0,212.0,-1485.0
1772222371.249293,31.0,214.0,-1487.0
1772222371.257293,29.0,211.0,-1487.0
1772222371.2507236,32.0,212.0,-1480.0
1772222371.2587235,35.0,214.0,-1472.0
1772222371.2524748,34.0,213.0,-1472.0
1772222371.2604747,35.0,214.0,-1474.0
1772222371.254525,35.0,215.0,-1469.0
1772222371.2625248,36.0,218.0,-1465.0
1772222371.2573564,36.0,219.0,-1465.0
1772222371.2653563,37.0,221.0,-1471.0
1772222371.259123,37.0,218.0,-1468.0
1772222371.267123,37.0,215.0,-1464.0
1772222371.2632809,39.0,217.0,-1469.0
1772222371.2712808,39.0,218.0,-1478.0
1772222371.264492,37.0,218.0,-1475.0
1772222371.272492,37.0,220.0,-1469.0
1772222371.2673385,39.0,221.0,-1471.0
1772222371.2753384,38.0,220.0,-1478.0
1772222371.2694056,38.0,220.0,-1481.0
1772222371.2774055,38.0,221.0,-1481.0
1772222371.2732778,39.0,220.0,-1481.0
1772222371.2812777,39.0,219.0,-1486.0
1772222371.2902942,40.0,220.0,-1488.0
1772222371.298294,39.0,221.0,-1478.0
1772222371.3128698,37.0,220.0,-1471.0
1772222371.3208697,36.0,221.0,-1471.0
1772222371.341311,36.0,221.0,-1473.0
1772222371.3493109,37.0,219.0,-1465.0
1772222371.3439498,36.0,219.0,-1462.0
1772222371.3519497,37.0,219.0,-1466.0
1772222371.3701026,38.0,218.0,-1472.0
1772222371.3781025,35.0,217.0,-1470.0
1772222371.3717926,33.0,217.0,-1466.0
1772222371.3797925,34.0,219.0,-1472.0
1772222371.3731596,33.0,219.0,-1483.0
1772222371.3811595,32.0,218.0,-1486.0
1772222371.374734,33.0,217.0,-1485.0
1772222371.3827338,35.0,218.0,-1487.0
1772222371.376279,34.0,215.0,-1496.0
1772222371.384279,35.0,216.0,-1498.0
1772222371.3810537,35.0,217.0,-1494.0
1772222371.3890536,34.0,217.0,-1492.0
1772222371.3831124,35.0,218.0,-1498.0
1772222371.3911123,35.0,219.0,-1497.0
1772222371.384085,33.0,221.0,-1488.0
1772222371.3920848,35.0,220.0,-1481.0
1772222371.3866684,38.0,219.0,-1482.0
1772222371.3946683,38.0,219.0,-1482.0
1772222371.3887112,37.0,218.0,-1472.0
1772222371.396711,39.0,220.0,-1465.0
1772222371.3908842,38.0,224.0,-1468.0
1772222371.398884,37.0,220.0,-1469.0
1772222371.3929412,40.0,221.0,-1462.0
1772222371.4009411,39.0,222.0,-1454.0
1772222371.3939319,41.0,223.0,-1457.0
1772222371.4019318,40.0,223.0,-1463.0
1772222371.3991203,40.0,224.0,-1463.0
1772222371.4071202,39.0,222.0,-1460.0
1772222371.431698,40.0,222.0,-1464.0
1772222371.439698,38.0,222.0,-1470.0
1772222371.4624214,37.0,223.0,-1470.0
1772222371.4704213,38.0,223.0,-1464.0
1772222371.4636326,40.0,222.0,-1467.0
1772222371.4716325,41.0,222.0,-1473.0
1772222371.5040464,39.0,221.0,-1475.0
1772222371.5120463,36.0,220.0,-1471.0
1772222371.5060465,37.0,221.0,-1471.0
1772222371.5140464,39.0,224.0,-1473.0
1772222371.5077348,39.0,224.0,-1470.0
1772222371.5157347,39.0,221.0,-1464.0
1772222371.5097144,38.0,219.0,-1458.0
1772222371.5177143,37.0,220.0,-1457.0
1772222371.5126615,37.0,220.0,-1458.0
1772222371.5206614,39.0,222.0,-1454.0
1772222371.515948,39.0,222.0,-1451.0
1772222371.523948,38.0,222.0,-1457.0
1772222371.5182583,39.0,222.0,-1463.0
1772222371.5262582,39.0,222.0,-1465.0
1772222371.5213661,38.0,221.0,-1468.0
1772222371.529366,39.0,222.0,-1476.0
1772222371.523346,38.0,221.0,-1483.0
1772222371.5313458,36.0,221.0,-1483.0
1772222371.5254962,36.0,221.0,-1481.0
1772222371.5334961,36.0,221.0,-1485.0
1772222371.5425541,36.0,222.0,-1493.0
1772222371.550554,37.0,222.0,-1492.0
1772222371.5702765,37.0,222.0,-1488.0
1772222371.5782764,37.0,221.0,-1489.0
1772222371.5947545,36.0,221.0,-1493.0
1772222371.6027544,37.0,221.0,-1493.0
1772222371.6124473,38.0,222.0,-1483.0
1772222371.6204472,37.0,220.0,-1479.0
1772222371.6139588,37.0,220.0,-1481.0
1772222371.6219587,36.0,221.0,-1478.0
1772222371.6154776,36.0,221.0,-1469.0
1772222371.6234775,40.0,223.0,-1463.0
1772222371.6207488,39.0,222.0,-1470.0
1772222371.6287487,36.0,221.0,-1472.0
1772222371.6237342,35.0,222.0,-1463.0
1772222371.6317341,37.0,222.0,-1459.0
1772222371.626671,38.0,222.0,-1463.0
1772222371.634671,38.0,222.0,-1469.0
1772222371.6413424,38.0,221.0,-1466.0
1772222371.6493423,38.0,222.0,-1461.0
1772222371.6701522,38.0,222.0,-1464.0
1772222371.678152,36.0,221.0,-1468.0
1772222371.6872485,36.0,219.0,-1468.0
1772222371.6952484,37.0,219.0,-1463.0
1772222371.7158504,38.0,221.0,-1467.0
1772222371.7238503,38.0,220.0,-1475.0
1772222371.7172604,37.0,220.0,-1475.0
1772222371.7252603,37.0,221.0,-1470.0
1772222371.7193873,38.0,222.0,-1473.0
1772222371.7273872,37.0,224.0,-1476.0
1772222371.7209907,36.0,222.0,-1474.0
1772222371.7289906,36.0,219.0,-1466.0
1772222371.7241838,38.0,220.0,-1465.0
1772222371.7321837,39.0,221.0,-1468.0
1772222371.726245,38.0,222.0,-1470.0
1772222371.7342448,38.0,223.0,-1466.0
1772222371.7282503,38.0,222.0,-1461.0
1772222371.7362502,39.0,222.0,-1466.0
1772222371.7297337,37.0,222.0,-1471.0
1772222371.7377336,37.0,220.0,-1468.0
1772222371.7307794,37.0,221.0,-1468.0
1772222371.7387793,38.0,221.0,-1475.0
1772222371.732806,37.0,223.0,-1482.0
1772222371.7408059,36.0,222.0,-1482.0
1772222371.7348022,36.0,220.0,-1481.0
1772222371.7428021,35.0,219.0,-1487.0
1772222371.7358232,37.0,220.0,-1493.0
1772222371.743823,37.0,222.0,-1492.0
1772222371.7383993,38.0,222.0,-1489.0
1772222371.7463992,38.0,220.0,-1492.0
1772222371.740456,38.0,221.0,-1497.0
1772222371.748456,37.0,221.0,-1496.0
1772222371.7419236,38.0,221.0,-1489.0
1772222371.7499235,38.0,221.0,-1485.0
1772222371.7439985,38.0,222.0,-1490.0
1772222371.7519984,37.0,222.0,-1488.0
1772222371.7461345,37.0,223.0,-1479.0
1772222371.7541344,36.0,222.0,-1478.0
1772222371.7482152,37.0,219.0,-1479.0
1772222371.756215,37.0,221.0,-1479.0
1772222371.7501984,37.0,221.0,-1474.0
1772222371.7581983,37.0,223.0,-1470.0
1772222371.7974648,38.0,223.0,-1474.0
1772222371.8054647,38.0,222.0,-1476.0
1772222371.8194275,37.0,223.0,-1473.0
1772222371.8274274,37.0,224.0,-1471.0
1772222371.8506258,38.0,224.0,-1475.0
1772222371.8586257,38.0,222.0,-1483.0
1772222371.8526373,38.0,222.0,-1479.0
1772222371.8606372,40.0,223.0,-1478.0
1772222371.8544197,39.0,224.0,-1482.0
1772222371.8624196,37.0,222.0,-1487.0
1772222371.8560388,35.0,220.0,-1484.0
1772222371.8640387,34.0,218.0,-1478.0
1772222371.8607395,33.0,216.0,-1478.0
1772222371.8687394,32.0,216.0,-1481.0
1772222371.8637629,32.0,217.0,-1479.0
1772222371.8717628,33.0,217.0,-1474.0
1772222371.865706,33.0,217.0,-1475.0
1772222371.8737059,32.0,217.0,-1478.0
1772222371.869094,32.0,216.0,-1478.0
1772222371.8770938,31.0,216.0,-1473.0
1772222371.8731458,32.0,216.0,-1473.0
1772222371.8811457,33.0,217.0,-1479.0
1772222371.8778422,34.0,219.0,-1483.0
1772222371.885842,34.0,219.0,-1479.0
1772222371.8913968,34.0,218.0,-1477.0
1772222371.8993967,34.0,217.0,-1483.0
1772222371.8933895,34.0,218.0,-1489.0
1772222371.9013894,33.0,218.0,-1486.0
1772222371.9003785,32.0,218.0,-1484.0
1772222371.9083784,34.0,219.0,-1490.0
1772222371.9307504,33.0,220.0,-1494.0
1772222371.9387503,32.0,219.0,-1490.0
1772222371.9546568,33.0,218.0,-1487.0
1772222371.9626567,34.0,218.0,-1490.0
1772222371.9737961,33.0,218.0,-1493.0
1772222371.981796,32.0,218.0,-1491.0
1772222371.975567,32.0,218.0,-1486.0
1772222371.983567,33.0,218.0,-1486.0
1772222371.9773903,32.0,219.0,-1487.0
1772222371.9853902,33.0,219.0,-1483.0
1772222371.9789922,33.0,218.0,-1473.0
1772222371.9869921,33.0,218.0,-1474.0
1772222371.9824336,33.0,219.0,-1477.0
1772222371.9904335,32.0,219.0,-1475.0
1772222371.9844916,33.0,219.0,-1467.0
1772222371.9924915,33.0,219.0,-1464.0
1772222371.9874673,33.0,220.0,-1471.0
1772222371.9954672,33.0,220.0,-1473.0
1772222371.9900231,33.0,220.0,-1467.0
1772222371.998023,34.0,219.0,-1465.0
1772222371.993046,33.0,220.0,-1474.0
1772222372.001046,34.0,220.0,-1476.0
1772222371.9960403,34.0,219.0,-1471.0
1772222372.0040402,33.0,220.0,-1468.0
1772222372.011048,33.0,221.0,-1474.0
1772222372.019048,34.0,221.0,-1478.0
1772222372.0315795,33.0,221.0,-1468.0
1772222372.0395794,35.0,221.0,-1463.0
1772222372.0654664,35.0,220.0,-1465.0
1772222372.0734663,35.0,220.0,-1469.0
1772222372.0853372,33.0,220.0,-1464.0
1772222372.093337,33.0,219.0,-1457.0
1772222372.087136,34.0,219.0,-1460.0
1772222372.095136,32.0,219.0,-1468.0
1772222372.088373,33.0,220.0,-1464.0
1772222372.0963728,32.0,220.0,-1462.0
1772222372.09041,33.0,218.0,-1463.0
1772222372.09841,34.0,218.0,-1466.0
1772222372.0948281,33.0,218.0,-1466.0
1772222372.102828,33.0,218.0,-1462.0
1772222372.0976393,34.0,219.0,-1462.0
1772222372.1056392,33.0,219.0,-1473.0
1772222372.1008677,33.0,221.0,-1478.0
1772222372.1088676,34.0,222.0,-1475.0
1772222372.1512957,34.0,220.0,-1477.0
1772222372.1592956,34.0,220.0,-1484.0
1772222372.1811936,34.0,219.0,-1488.0
1772222372.1891935,32.0,218.0,-1482.0
1772222372.2025666,32.0,220.0,-1479.0
1772222372.2105665,32.0,221.0,-1484.0
1772222372.2045712,32.0,220.0,-1486.0
1772222372.2125711,32.0,220.0,-1483.0
1772222372.206659,32.0,220.0,-1477.0
1772222372.214659,34.0,220.0,-1477.0
1772222372.2081933,34.0,221.0,-1479.0
1772222372.2161932,34.0,221.0,-1476.0
1772222372.2139328,34.0,221.0,-1470.0
1772222372.2219326,34.0,220.0,-1473.0
1772222372.2163773,32.0,217.0,-1476.0
1772222372.2243772,32.0,218.0,-1472.0
1772222372.219304,32.0,218.0,-1466.0
1772222372.227304,33.0,219.0,-1466.0
1772222372.2220104,32.0,220.0,-1472.0
1772222372.2300103,31.0,219.0,-1472.0
1772222372.2693813,32.0,217.0,-1467.0
1772222372.2773812,32.0,217.0,-1467.0
1772222372.300477,32.0,217.0,-1473.0
1772222372.308477,32.0,218.0,-1474.0
1772222372.320762,32.0,218.0,-1470.0
1772222372.3287618,32.0,219.0,-1469.0
1772222372.322315,32.0,219.0,-1474.0
1772222372.3303149,31.0,219.0,-1474.0
1772222372.3238711,31.0,218.0,-1467.0
1772222372.331871,32.0,217.0,-1465.0
1772222372.3254302,33.0,217.0,-1467.0
1772222372.33343,32.0,217.0,-1470.0
1772222372.3299375,32.0,218.0,-1468.0
1772222372.3379374,33.0,219.0,-1464.0
1772222372.3319619,33.0,218.0,-1469.0
1772222372.3399618,32.0,218.0,-1474.0
1772222372.3350415,32.0,218.0,-1473.0
1772222372.3430414,32.0,218.0,-1470.0
1772222372.3375955,31.0,218.0,-1475.0
1772222372.3455954,33.0,219.0,-1483.0
1772222372.3511734,32.0,219.0,-1482.0
1772222372.3591733,33.0,219.0,-1479.0
1772222372.372576,32.0,218.0,-1482.0
1772222372.380576,32.0,219.0,-1487.0
1772222372.3852422,31.0,218.0,-1488.0
1772222372.3932421,30.0,218.0,-1483.0
1772222372.4043374,32.0,217.0,-1481.0
1772222372.4123373,33.0,217.0,-1486.0
1772222372.406675,33.0,218.0,-1486.0
1772222372.414675,32.0,218.0,-1480.0
1772222372.4328282,32.0,217.0,-1478.0
1772222372.440828,32.0,217.0,-1482.0
1772222372.434702,30.0,216.0,-1482.0
1772222372.4427018,32.0,217.0,-1477.0
1772222372.4365666,33.0,218.0,-1475.0
1772222372.4445665,32.0,218.0,-1478.0
1772222372.4382555,32.0,218.0,-1482.0
1772222372.4462554,32.0,218.0,-1479.0
1772222372.4396183,32.0,217.0,-1473.0
1772222372.4476182,32.0,218.0,-1475.0
1772222372.4414208,33.0,218.0,-1480.0
1772222372.4494207,34.0,218.0,-1476.0
1772222372.4460316,33.0,218.0,-1471.0
1772222372.4540315,34.0,219.0,-1473.0
1772222372.4491076,32.0,219.0,-1478.0
1772222372.4571075,32.0,220.0,-1476.0
1772222372.451613,32.0,219.0,-1469.0
1772222372.4596128,34.0,220.0,-1469.0
1772222372.4526339,34.0,220.0,-1475.0
1772222372.4606338,33.0,219.0,-1474.0
1772222372.4556575,33.0,218.0,-1467.0
1772222372.4636574,33.0,218.0,-1466.0
1772222372.4592595,33.0,217.0,-1470.0
1772222372.4672594,33.0,219.0,-1471.0
1772222372.5268815,32.0,217.0,-1465.0
1772222372.5348814,32.0,217.0,-1464.0
1772222372.553088,32.0,217.0,-1470.0
1772222372.5610878,33.0,217.0,-1476.0
1772222372.5546675,32.0,218.0,-1472.0
1772222372.5626674,32.0,217.0,-1470.0
1772222372.5561304,32.0,219.0,-1477.0
1772222372.5641303,32.0,219.0,-1481.0
1772222372.5576847,33.0,219.0,-1478.0
1772222372.5656846,34.0,219.0,-1475.0
1772222372.5609396,34.0,220.0,-1478.0
1772222372.5689394,35.0,220.0,-1483.0
1772222372.564057,36.0,221.0,-1479.0
1772222372.572057,36.0,222.0,-1471.0
1772222372.565599,34.0,221.0,-1474.0
1772222372.5735989,34.0,222.0,-1478.0
1772222372.5683842,35.0,223.0,-1474.0
1772222372.576384,35.0,222.0,-1468.0
1772222372.5694108,37.0,223.0,-1468.0
1772222372.5774107,36.0,222.0,-1472.0
1772222372.571435,35.0,221.0,-1469.0
1772222372.5794349,34.0,220.0,-1463.0
1772222372.572441,35.0,221.0,-1463.0
1772222372.580441,35.0,221.0,-1470.0
1772222372.5764346,35.0,221.0,-1471.0
1772222372.5844345,34.0,220.0,-1466.0
1772222372.5778193,35.0,221.0,-1465.0
1772222372.5858192,35.0,221.0,-1470.0
1772222372.5928652,35.0,222.0,-1471.0
1772222372.6008651,33.0,221.0,-1466.0
1772222372.6128678,34.0,221.0,-1461.0
1772222372.6208677,35.0,221.0,-1466.0
1772222372.650016,36.0,221.0,-1469.0
1772222372.658016,36.0,221.0,-1464.0
1772222372.67019,36.0,222.0,-1460.0
1772222372.67819,36.0,222.0,-1465.0
1772222372.6720154,34.0,220.0,-1464.0
1772222372.6800153,33.0,219.0,-1464.0
1772222372.6735392,33.0,219.0,-1465.0
1772222372.681539,33.0,219.0,-1460.0
1772222372.6788135,34.0,220.0,-1462.0
1772222372.6868134,34.0,220.0,-1468.0
1772222372.6803563,34.0,220.0,-1464.0
1772222372.6883562,33.0,221.0,-1461.0
1772222372.684205,34.0,221.0,-1463.0
1772222372.692205,33.0,221.0,-1467.0
1772222372.689334,33.0,220.0,-1463.0
1772222372.6973338,34.0,219.0,-1458.0
1772222372.702344,35.0,219.0,-1459.0
1772222372.7103438,35.0,218.0,-1466.0
1772222372.7331712,35.0,220.0,-1462.0
1772222372.7411711,36.0,220.0,-1458.0
1772222372.750964,36.0,220.0,-1460.0
1772222372.7589638,34.0,220.0,-1468.0
1772222372.7584796,35.0,221.0,-1471.0
1772222372.7664795,36.0,221.0,-1469.0
1772222372.7782109,35.0,221.0,-1470.0
1772222372.7862108,35.0,222.0,-1475.0
1772222372.7795103,34.0,222.0,-1474.0
1772222372.7875102,34.0,221.0,-1470.0
1772222372.781139,35.0,221.0,-1466.0
1772222372.7891388,35.0,221.0,-1470.0
1772222372.782946,35.0,221.0,-1472.0
1772222372.790946,35.0,220.0,-1465.0
1772222372.7880726,34.0,219.0,-1464.0
1772222372.7960725,34.0,220.0,-1467.0
1772222372.790861,36.0,221.0,-1470.0
1772222372.7988608,35.0,221.0,-1468.0
1772222372.7939017,34.0,221.0,-1464.0
1772222372.8019016,35.0,222.0,-1467.0
1772222372.7969708,35.0,223.0,-1472.0
1772222372.8049707,34.0,220.0,-1469.0
1772222372.8093626,34.0,220.0,-1466.0
1772222372.8173625,35.0,221.0,-1469.0
1772222372.8117242,35.0,221.0,-1474.0
1772222372.819724,34.0,221.0,-1472.0
1772222372.8342779,35.0,220.0,-1467.0
1772222372.8422778,36.0,221.0,-1470.0
1772222372.8456206,35.0,221.0,-1476.0
1772222372.8536205,35.0,220.0,-1475.0
1772222372.8630617,35.0,221.0,-1469.0
1772222372.8710616,37.0,223.0,-1471.0
1772222372.865448,37.0,222.0,-1475.0
1772222372.873448,36.0,222.0,-1474.0
1772222372.8908224,35.0,221.0,-1470.0
1772222372.8988223,35.0,221.0,-1469.0
1772222372.8920374,36.0,221.0,-1474.0
1772222372.9000373,36.0,221.0,-1475.0
1772222372.893793,35.0,222.0,-1469.0
1772222372.901793,35.0,221.0,-1469.0
1772222372.8952508,37.0,221.0,-1473.0
1772222372.9032507,36.0,221.0,-1477.0
1772222372.8986323,37.0,221.0,-1473.0
1772222372.9066322,37.0,221.0,-1469.0
1772222372.9017746,36.0,221.0,-1474.0
1772222372.9097745,35.0,221.0,-1479.0
1772222372.9044142,36.0,222.0,-1477.0
1772222372.912414,38.0,222.0,-1472.0
1772222372.9068506,38.0,223.0,-1474.0
1772222372.9148505,39.0,224.0,-1479.0
1772222372.9088838,40.0,224.0,-1476.0
1772222372.9168837,39.0,224.0,-1471.0
1772222372.9105191,39.0,224.0,-1471.0
1772222372.918519,39.0,224.0,-1479.0
1772222372.9127977,39.0,225.0,-1477.0
1772222372.9207976,39.0,224.0,-1471.0
1772222372.9158416,40.0,224.0,-1472.0
1772222372.9238415,38.0,225.0,-1477.0
1772222372.9318557,38.0,224.0,-1477.0
1772222372.9398556,40.0,224.0,-1473.0
1772222372.9528618,41.0,226.0,-1471.0
1772222372.9608617,40.0,224.0,-1477.0
1772222372.9841313,39.0,224.0,-1478.0
1772222372.9921312,39.0,225.0,-1473.0
1772222373.004513,41.0,224.0,-1470.0
1772222373.012513,41.0,225.0,-1474.0
1772222373.0061924,38.0,225.0,-1475.0
1772222373.0141923,37.0,225.0,-1470.0
1772222373.007589,39.0,225.0,-1465.0
1772222373.015589,40.0,225.0,-1468.0
1772222373.0091243,39.0,225.0,-1474.0
1772222373.0171242,39.0,225.0,-1467.0
1772222373.0123699,40.0,225.0,-1467.0
1772222373.0203698,39.0,225.0,-1472.0
1772222373.015777,39.0,224.0,-1476.0
1772222373.023777,40.0,224.0,-1474.0
1772222373.0183141,41.0,226.0,-1470.0
1772222373.026314,41.0,227.0,-1473.0
1772222373.0226972,40.0,226.0,-1479.0
1772222373.030697,39.0,225.0,-1478.0
1772222373.0380237,39.0,226.0,-1473.0
1772222373.0460236,40.0,225.0,-1473.0
1772222373.0617394,40.0,226.0,-1478.0
1772222373.0697393,40.0,225.0,-1479.0
1772222373.0862548,40.0,225.0,-1473.0
1772222373.0942547,39.0,227.0,-1471.0
1772222373.1120381,39.0,226.0,-1474.0
1772222373.120038,41.0,226.0,-1477.0
1772222373.114039,40.0,225.0,-1472.0
1772222373.1220388,39.0,225.0,-1468.0
1772222373.115644,39.0,226.0,-1471.0
1772222373.1236439,39.0,225.0,-1475.0
1772222373.1172562,39.0,226.0,-1470.0
1772222373.125256,40.0,227.0,-1464.0
1772222373.1217856,40.0,227.0,-1469.0
1772222373.1297855,40.0,226.0,-1473.0
1772222373.1246963,39.0,226.0,-1471.0
1772222373.1326962,40.0,226.0,-1468.0
1772222373.125714,40.0,226.0,-1469.0
1772222373.133714,39.0,226.0,-1474.0
1772222373.129005,41.0,225.0,-1471.0
1772222373.1370049,40.0,225.0,-1468.0
1772222373.131445,40.0,226.0,-1470.0
1772222373.1394448,39.0,227.0,-1477.0
1772222373.1480165,39.0,227.0,-1475.0
1772222373.1560163,39.0,226.0,-1468.0
1772222373.1761785,40.0,227.0,-1468.0
1772222373.1841784,39.0,227.0,-1473.0
1772222373.1946688,38.0,227.0,-1472.0
1772222373.2026687,40.0,227.0,-1468.0
1772222373.2050686,40.0,227.0,-1466.0
1772222373.2130685,39.0,227.0,-1472.0
1772222373.2257779,40.0,226.0,-1473.0
1772222373.2337778,40.0,226.0,-1467.0
1772222373.2273004,39.0,226.0,-1464.0
1772222373.2353003,40.0,227.0,-1469.0
1772222373.2287877,41.0,226.0,-1471.0
1772222373.2367876,40.0,226.0,-1470.0
1772222373.233299,39.0,226.0,-1467.0
1772222373.241299,39.0,227.0,-1469.0
1772222373.23706,39.0,227.0,-1473.0
1772222373.24506,38.0,226.0,-1472.0
1772222373.2397404,39.0,227.0,-1466.0
1772222373.2477403,39.0,226.0,-1470.0
1772222373.2438269,39.0,226.0,-1474.0
1772222373.2518268,39.0,226.0,-1472.0
1772222373.2759657,39.0,226.0,-1471.0
1772222373.2839656,40.0,228.0,-1471.0
1772222373.276984,40.0,227.0,-1476.0
1772222373.2849839,40.0,228.0,-1474.0
1772222373.2916768,39.0,228.0,-1467.0
1772222373.2996767,38.0,226.0,-1468.0
1772222373.333744,38.0,226.0,-1474.0
1772222373.341744,40.0,226.0,-1475.0
1772222373.335747,39.0,227.0,-1470.0
1772222373.343747,39.0,227.0,-1468.0
1772222373.337551,38.0,227.0,-1472.0
1772222373.345551,38.0,227.0,-1475.0
1772222373.3394985,40.0,227.0,-1473.0
1772222373.3474984,40.0,227.0,-1469.0
1772222373.3429742,38.0,225.0,-1474.0
1772222373.350974,35.0,224.0,-1479.0
1772222373.3459592,35.0,223.0,-1474.0
1772222373.353959,35.0,222.0,-1468.0
1772222373.3475285,34.0,222.0,-1474.0
1772222373.3555284,35.0,222.0,-1476.0
1772222373.351746,35.0,223.0,-1469.0
1772222373.359746,36.0,222.0,-1466.0
1772222373.3839467,36.0,222.0,-1468.0
1772222373.3919466,35.0,220.0,-1472.0
1772222373.4095163,37.0,223.0,-1470.0
1772222373.4175162,36.0,224.0,-1468.0
1772222373.4110312,36.0,224.0,-1470.0
1772222373.4190311,36.0,224.0,-1477.0
1772222373.4412932,35.0,223.0,-1477.0
1772222373.4492931,35.0,222.0,-1472.0
1772222373.4423747,36.0,223.0,-1470.0
1772222373.4503746,36.0,223.0,-1475.0
1772222373.4444342,35.0,224.0,-1477.0
1772222373.452434,34.0,223.0,-1470.0
1772222373.4460194,35.0,223.0,-1469.0
1772222373.4540193,37.0,223.0,-1475.0
1772222373.4475188,37.0,223.0,-1479.0
1772222373.4555187,35.0,222.0,-1475.0
1772222373.4521284,36.0,222.0,-1472.0
1772222373.4601283,36.0,223.0,-1477.0
1772222373.4553483,35.0,224.0,-1479.0
1772222373.4633482,36.0,224.0,-1474.0
1772222373.4590204,37.0,224.0,-1471.0
1772222373.4670203,36.0,224.0,-1479.0
1772222373.476312,37.0,225.0,-1481.0
1772222373.4843118,38.0,224.0,-1478.0
1772222373.4979343,36.0,224.0,-1474.0
1772222373.5059342,37.0,225.0,-1477.0
1772222373.5231,36.0,226.0,-1480.0
1772222373.5310998,37.0,225.0,-1479.0
1772222373.5337813,36.0,225.0,-1475.0
1772222373.5417812,35.0,223.0,-1475.0
1772222373.5622559,35.0,223.0,-1482.0
1772222373.5702558,35.0,223.0,-1481.0
1772222373.5638285,36.0,223.0,-1474.0
1772222373.5718284,35.0,223.0,-1475.0
1772222373.5654316,35.0,224.0,-1481.0
1772222373.5734315,36.0,225.0,-1480.0
1772222373.5694766,35.0,224.0,-1475.0
1772222373.5774765,36.0,224.0,-1474.0
1772222373.5729923,37.0,226.0,-1480.0
1772222373.5809922,35.0,224.0,-1481.0
1772222373.5744934,35.0,224.0,-1476.0
1772222373.5824933,36.0,224.0,-1472.0
1772222373.5778677,37.0,224.0,-1478.0
1772222373.5858676,36.0,224.0,-1480.0
1772222373.5798912,35.0,225.0,-1477.0
1772222373.587891,36.0,225.0,-1474.0
1772222373.5822732,37.0,225.0,-1479.0
1772222373.5902731,37.0,225.0,-1483.0
1772222373.5981336,37.0,224.0,-1479.0
1772222373.6061335,37.0,225.0,-1474.0
1772222373.6264613,37.0,225.0,-1476.0
1772222373.6344612,35.0,225.0,-1482.0
1772222373.6503356,35.0,224.0,-1477.0
1772222373.6583354,36.0,223.0,-1474.0
1772222373.659363,35.0,223.0,-1476.0
1772222373.667363,33.0,222.0,-1479.0
1772222373.679755,35.0,223.0,-1478.0
1772222373.6877549,34.0,222.0,-1474.0
1772222373.6814241,34.0,221.0,-1475.0
1772222373.689424,33.0,222.0,-1479.0
1772222373.6830583,33.0,222.0,-1479.0
1772222373.6910582,34.0,222.0,-1475.0
1772222373.6873257,33.0,222.0,-1475.0
1772222373.6953256,33.0,223.0,-1478.0
1772222373.6903296,33.0,222.0,-1480.0
1772222373.6983294,32.0,220.0,-1474.0
1772222373.6918738,33.0,220.0,-1475.0
1772222373.6998737,35.0,221.0,-1478.0
1772222373.6953037,34.0,221.0,-1481.0
1772222373.7033036,34.0,222.0,-1477.0
1772222373.7385101,35.0,223.0,-1474.0
1772222373.74651,36.0,222.0,-1479.0
1772222373.7604203,36.0,221.0,-1482.0
1772222373.7684202,33.0,220.0,-1476.0
1772222373.7698882,33.0,222.0,-1474.0
1772222373.777888,33.0,222.0,-1477.0
1772222373.7908554,34.0,222.0,-1481.0
1772222373.7988553,35.0,222.0,-1479.0
1772222373.7924118,36.0,222.0,-1473.0
1772222373.8004117,37.0,222.0,-1475.0
1772222373.793945,36.0,222.0,-1480.0
1772222373.801945,35.0,223.0,-1479.0
1772222373.7959955,34.0,222.0,-1473.0
1772222373.8039954,34.0,221.0,-1473.0
1772222373.8005311,34.0,222.0,-1478.0
1772222373.808531,34.0,221.0,-1478.0
1772222373.8039513,34.0,220.0,-1474.0
1772222373.8119512,34.0,221.0,-1474.0
1772222373.8062694,34.0,221.0,-1477.0
1772222373.8142693,35.0,222.0,-1479.0
1772222373.81068,35.0,223.0,-1476.0
1772222373.8186798,36.0,221.0,-1474.0
1772222373.823746,35.0,220.0,-1477.0
1772222373.8317459,34.0,220.0,-1480.0
1772222373.8468938,36.0,220.0,-1476.0
1772222373.8548937,37.0,222.0,-1472.0
1772222373.8559268,36.0,223.0,-1476.0
1772222373.8639266,35.0,223.0,-1478.0
1772222373.8760223,35.0,223.0,-1474.0
1772222373.8840222,35.0,222.0,-1468.0
1772222373.8778765,35.0,221.0,-1473.0
1772222373.8858764,36.0,222.0,-1478.0
1772222373.9047124,37.0,223.0,-1475.0
1772222373.9127123,36.0,221.0,-1471.0
1772222373.9062314,36.0,220.0,-1473.0
1772222373.9142313,36.0,221.0,-1475.0
1772222373.9076712,35.0,222.0,-1477.0
1772222373.915671,35.0,223.0,-1473.0
1772222373.9123247,37.0,223.0,-1473.0
1772222373.9203246,36.0,222.0,-1479.0
1772222373.9141338,35.0,221.0,-1479.0
1772222373.9221337,35.0,222.0,-1474.0
1772222373.9167252,36.0,223.0,-1474.0
1772222373.924725,37.0,223.0,-1478.0
1772222373.9187431,37.0,222.0,-1480.0
1772222373.926743,37.0,221.0,-1476.0
1772222373.9218006,38.0,222.0,-1471.0
1772222373.9298005,38.0,224.0,-1477.0
1772222373.9380236,37.0,225.0,-1479.0
1772222373.9460235,38.0,225.0,-1473.0
1772222373.9682658,36.0,227.0,-1471.0
1772222373.9762657,34.0,225.0,-1474.0
1772222373.9866123,35.0,222.0,-1479.0
1772222373.9946122,35.0,221.0,-1475.0
1772222373.9949389,36.0,222.0,-1470.0
1772222374.0029387,34.0,220.0,-1474.0
1772222374.0131772,34.0,220.0,-1478.0
1772222374.021177,35.0,220.0,-1475.0
1772222374.014505,36.0,221.0,-1471.0
1772222374.0225048,35.0,222.0,-1473.0
1772222374.0160487,35.0,222.0,-1476.0
1772222374.0240486,36.0,222.0,-1476.0
1772222374.021736,35.0,220.0,-1472.0
1772222374.0297358,35.0,221.0,-1473.0
1772222374.0255446,34.0,222.0,-1479.0
1772222374.0335445,35.0,221.0,-1480.0
1772222374.0421324,37.0,223.0,-1472.0
1772222374.0501323,37.0,225.0,-1472.0
1772222374.072355,39.0,225.0,-1479.0
1772222374.080355,39.0,225.0,-1481.0
1772222374.0743525,42.0,226.0,-1474.0
1772222374.0823524,42.0,227.0,-1472.0
1772222374.0970302,46.0,229.0,-1476.0
1772222374.10503,44.0,230.0,-1477.0
1772222374.1143086,46.0,232.0,-1473.0
1772222374.1223085,51.0,237.0,-1469.0
1772222374.115834,54.0,241.0,-1473.0
1772222374.123834,57.0,245.0,-1477.0
1772222374.1188757,62.0,248.0,-1475.0
1772222374.1268756,61.0,253.0,-1471.0
1772222374.1240296,64.0,249.0,-1476.0
1772222374.1320295,68.0,250.0,-1483.0
1772222374.1269567,65.0,252.0,-1483.0
1772222374.1349566,67.0,256.0,-1480.0
1772222374.1292892,69.0,260.0,-1481.0
1772222374.137289,68.0,262.0,-1484.0
1772222374.1442523,70.0,264.0,-1482.0
1772222374.1522522,72.0,266.0,-1477.0
1772222374.1462576,74.0,268.0,-1479.0
1772222374.1542575,74.0,268.0,-1486.0
1772222374.1898742,72.0,265.0,-1486.0
1772222374.197874,69.0,262.0,-1479.0
1772222374.2133994,70.0,258.0,-1478.0
1772222374.2213993,69.0,255.0,-1482.0
1772222374.215034,65.0,255.0,-1482.0
1772222374.223034,61.0,251.0,-1478.0
1772222374.2164426,58.0,249.0,-1476.0
1772222374.2244425,57.0,247.0,-1479.0
1772222374.218412,55.0,245.0,-1484.0
1772222374.2264118,53.0,241.0,-1480.0
1772222374.220793,53.0,239.0,-1474.0
1772222374.228793,52.0,238.0,-1479.0
1772222374.2243643,49.0,236.0,-1484.0
1772222374.2323642,45.0,235.0,-1481.0
1772222374.2288718,45.0,234.0,-1476.0
1772222374.2368717,44.0,230.0,-1480.0
1772222374.2311158,40.0,227.0,-1487.0
1772222374.2391157,39.0,226.0,-1483.0
1772222374.2377067,39.0,226.0,-1479.0
1772222374.2457066,38.0,227.0,-1480.0
1772222374.2537565,38.0,225.0,-1485.0
1772222374.2617564,36.0,222.0,-1482.0
1772222374.260295,34.0,220.0,-1477.0
1772222374.2682948,33.0,219.0,-1477.0
1772222374.2902942,32.0,218.0,-1483.0
1772222374.298294,32.0,219.0,-1481.0
1772222374.3015177,31.0,219.0,-1475.0
1772222374.3095176,31.0,219.0,-1472.0
1772222374.3373003,28.0,217.0,-1478.0
1772222374.3453002,27.0,214.0,-1479.0
1772222374.3629909,28.0,215.0,-1475.0
1772222374.3709908,28.0,219.0,-1472.0
1772222374.3640163,27.0,216.0,-1477.0
1772222374.3720162,27.0,212.0,-1481.0
1772222374.3657334,27.0,212.0,-1476.0
1772222374.3737333,26.0,213.0,-1472.0
1772222374.3671734,26.0,214.0,-1479.0
1772222374.3751733,28.0,213.0,-1482.0
1772222374.3692307,27.0,214.0,-1480.0
1772222374.3772306,23.0,214.0,-1476.0
1772222374.3720524,23.0,213.0,-1476.0
1772222374.3800523,23.0,212.0,-1481.0
1772222374.3740764,24.0,212.0,-1481.0
1772222374.3820763,24.0,211.0,-1474.0
1772222374.377393,25.0,210.0,-1475.0
1772222374.385393,24.0,212.0,-1479.0
1772222374.3800724,25.0,214.0,-1479.0
1772222374.3880723,27.0,214.0,-1472.0
1772222374.3836386,26.0,213.0,-1471.0
1772222374.3916385,26.0,212.0,-1476.0
1772222374.4030912,26.0,213.0,-1476.0
1772222374.411091,26.0,214.0,-1470.0
1772222374.4286127,27.0,213.0,-1470.0
1772222374.4366126,26.0,211.0,-1476.0
1772222374.4370875,25.0,210.0,-1476.0
1772222374.4450874,23.0,210.0,-1471.0
1772222374.459201,23.0,210.0,-1469.0
1772222374.467201,24.0,211.0,-1473.0
1772222374.4674582,24.0,211.0,-1478.0
1772222374.4754581,24.0,209.0,-1475.0
1772222374.49951,25.0,209.0,-1471.0
1772222374.50751,25.0,208.0,-1475.0
1772222374.5011485,24.0,209.0,-1477.0
1772222374.5091484,25.0,210.0,-1476.0
1772222374.502817,26.0,210.0,-1472.0
1772222374.5108168,26.0,210.0,-1476.0
1772222374.504415,23.0,211.0,-1481.0
1772222374.512415,22.0,212.0,-1477.0
1772222374.5060213,23.0,210.0,-1472.0
1772222374.5140212,23.0,208.0,-1474.0
1772222374.5089717,23.0,208.0,-1478.0
1772222374.5169716,24.0,209.0,-1475.0
1772222374.5110176,24.0,209.0,-1470.0
1772222374.5190175,23.0,209.0,-1470.0
1772222374.513217,22.0,209.0,-1475.0
1772222374.5212169,22.0,207.0,-1477.0
1772222374.5164087,23.0,207.0,-1471.0
1772222374.5244086,22.0,209.0,-1469.0
1772222374.5189486,22.0,209.0,-1474.0
1772222374.5269485,23.0,207.0,-1476.0
1772222374.5210097,23.0,208.0,-1470.0
1772222374.5290096,23.0,208.0,-1472.0
1772222374.5242407,23.0,208.0,-1478.0
1772222374.5322406,22.0,208.0,-1479.0
1772222374.5397043,23.0,207.0,-1476.0
1772222374.5477042,23.0,207.0,-1472.0
1772222374.5698419,23.0,208.0,-1476.0
1772222374.5778418,23.0,208.0,-1480.0
1772222374.57924,23.0,206.0,-1477.0
1772222374.58724,22.0,206.0,-1472.0
1772222374.600662,22.0,207.0,-1474.0
1772222374.608662,23.0,208.0,-1478.0
1772222374.624428,23.0,208.0,-1475.0
1772222374.632428,23.0,207.0,-1471.0
1772222374.6258078,23.0,207.0,-1470.0
1772222374.6338077,26.0,208.0,-1475.0
1772222374.6278684,26.0,210.0,-1477.0
1772222374.6358683,24.0,211.0,-1471.0
1772222374.629471,25.0,210.0,-1471.0
1772222374.637471,26.0,210.0,-1474.0
1772222374.6309972,27.0,212.0,-1476.0
1772222374.638997,27.0,212.0,-1473.0
1772222374.6324716,29.0,214.0,-1475.0
1772222374.6404715,31.0,214.0,-1481.0
1772222374.6355221,31.0,214.0,-1483.0
1772222374.643522,31.0,214.0,-1479.0
1772222374.6365275,31.0,214.0,-1474.0
1772222374.6445274,31.0,214.0,-1477.0
1772222374.639056,32.0,215.0,-1482.0
1772222374.6470559,32.0,216.0,-1477.0
1772222374.6406486,31.0,216.0,-1474.0
1772222374.6486485,31.0,216.0,-1478.0
1772222374.6435866,32.0,217.0,-1480.0
1772222374.6515865,32.0,214.0,-1476.0
1772222374.646146,32.0,214.0,-1472.0
1772222374.654146,31.0,215.0,-1476.0
1772222374.649324,30.0,213.0,-1481.0
1772222374.6573238,30.0,212.0,-1478.0
1772222374.651227,30.0,214.0,-1472.0
1772222374.659227,30.0,213.0,-1477.0
1772222374.669375,30.0,213.0,-1482.0
1772222374.6773748,29.0,213.0,-1481.0
1772222374.7034087,31.0,214.0,-1476.0
1772222374.7114086,31.0,215.0,-1476.0
1772222374.7307243,31.0,216.0,-1480.0
1772222374.7387242,32.0,216.0,-1483.0
1772222374.7464502,33.0,215.0,-1479.0
1772222374.75445,33.0,215.0,-1476.0
1772222374.7478106,33.0,216.0,-1482.0
1772222374.7558105,33.0,217.0,-1485.0
1772222374.7493558,32.0,218.0,-1479.0
1772222374.7573557,34.0,218.0,-1476.0
1772222374.7512555,34.0,216.0,-1480.0
1772222374.7592554,33.0,216.0,-1483.0
1772222374.752733,33.0,216.0,-1479.0
1772222374.760733,32.0,215.0,-1475.0
1772222374.756819,33.0,215.0,-1478.0
1772222374.764819,31.0,214.0,-1481.0
1772222374.7583535,31.0,215.0,-1476.0
1772222374.7663534,32.0,215.0,-1472.0
1772222374.7603846,34.0,214.0,-1474.0
1772222374.7683845,34.0,214.0,-1477.0
1772222374.7644205,33.0,214.0,-1476.0
1772222374.7724204,34.0,215.0,-1472.0
1772222374.7685022,33.0,217.0,-1476.0
1772222374.7765021,32.0,218.0,-1484.0
1772222374.7831345,32.0,218.0,-1485.0
1772222374.7911344,33.0,217.0,-1478.0
1772222374.8157349,33.0,217.0,-1476.0
1772222374.8237348,34.0,218.0,-1482.0
1772222374.8362482,34.0,217.0,-1485.0
1772222374.844248,35.0,216.0,-1478.0
1772222374.8591766,35.0,217.0,-1476.0
1772222374.8671765,34.0,218.0,-1480.0
1772222374.8604069,33.0,217.0,-1482.0
1772222374.8684068,33.0,218.0,-1475.0
1772222374.8621597,34.0,218.0,-1474.0
1772222374.8701596,34.0,218.0,-1479.0
1772222374.8636498,34.0,215.0,-1481.0
1772222374.8716497,34.0,215.0,-1476.0
1772222374.866713,34.0,217.0,-1473.0
1772222374.874713,35.0,218.0,-1477.0
1772222374.8698442,36.0,218.0,-1480.0
1772222374.877844,36.0,220.0,-1478.0
1772222374.8708644,36.0,219.0,-1474.0
1772222374.8788643,36.0,219.0,-1476.0
1772222374.8735807,36.0,219.0,-1479.0
1772222374.8815806,34.0,219.0,-1479.0
1772222374.876652,34.0,217.0,-1473.0
1772222374.884652,36.0,217.0,-1473.0
1772222374.8786428,35.0,217.0,-1479.0
1772222374.8866427,35.0,218.0,-1479.0
1772222374.883134,35.0,218.0,-1473.0
1772222374.8911338,34.0,218.0,-1473.0
1772222374.884849,34.0,218.0,-1479.0
1772222374.892849,34.0,218.0,-1480.0
1772222374.9022448,35.0,219.0,-1473.0
1772222374.9102447,36.0,220.0,-1472.0
1772222374.9257903,34.0,218.0,-1477.0
1772222374.9337902,35.0,217.0,-1479.0
1772222374.9280782,34.0,217.0,-1471.0
1772222374.936078,34.0,217.0,-1468.0
1772222374.9552562,34.0,217.0,-1477.0
1772222374.9632561,34.0,218.0,-1478.0
1772222374.9566844,34.0,219.0,-1472.0
1772222374.9646842,34.0,218.0,-1470.0
1772222374.971219,35.0,217.0,-1476.0
1772222374.979219,36.0,217.0,-1480.0
1772222374.9960322,34.0,217.0,-1478.0
1772222375.0040321,34.0,217.0,-1472.0
1772222374.9975593,34.0,217.0,-1472.0
1772222375.0055592,34.0,217.0,-1477.0
1772222374.999235,35.0,218.0,-1478.0
1772222375.0072348,34.0,218.0,-1473.0
1772222375.0012872,34.0,217.0,-1473.0
1772222375.009287,35.0,216.0,-1479.0
1772222375.006043,34.0,216.0,-1478.0
1772222375.0140429,34.0,217.0,-1471.0
1772222375.0100543,34.0,217.0,-1473.0
1772222375.0180542,34.0,217.0,-1478.0
1772222375.012721,35.0,218.0,-1479.0
1772222375.020721,35.0,217.0,-1472.0
1772222375.0137382,36.0,219.0,-1469.0
1772222375.021738,36.0,219.0,-1475.0
1772222375.0193322,35.0,219.0,-1477.0
1772222375.027332,36.0,218.0,-1472.0
1772222375.0332716,36.0,218.0,-1469.0
1772222375.0412714,35.0,218.0,-1474.0
1772222375.0680957,36.0,217.0,-1476.0
1772222375.0760956,36.0,218.0,-1471.0
1772222375.0936632,36.0,218.0,-1467.0
1772222375.101663,36.0,219.0,-1476.0
1772222375.109496,36.0,219.0,-1477.0
1772222375.117496,35.0,218.0,-1472.0
1772222375.11093,35.0,218.0,-1467.0
1772222375.1189299,35.0,219.0,-1472.0
1772222375.112911,37.0,219.0,-1476.0
1772222375.120911,37.0,218.0,-1474.0
1772222375.114562,36.0,218.0,-1470.0
1772222375.122562,35.0,218.0,-1470.0
1772222375.1163597,35.0,218.0,-1477.0
1772222375.1243596,36.0,218.0,-1475.0
1772222375.1198678,35.0,218.0,-1469.0
1772222375.1278677,34.0,218.0,-1471.0
1772222375.123073,35.0,219.0,-1478.0
1772222375.131073,36.0,219.0,-1475.0
1772222375.125597,36.0,218.0,-1473.0
1772222375.133597,35.0,218.0,-1471.0
1772222375.1284194,35.0,217.0,-1476.0
1772222375.1364193,34.0,217.0,-1477.0
1772222375.129457,34.0,218.0,-1473.0
1772222375.137457,36.0,219.0,-1471.0
1772222375.130493,36.0,220.0,-1476.0
1772222375.1384928,36.0,219.0,-1479.0
1772222375.1471322,35.0,217.0,-1477.0
1772222375.155132,35.0,217.0,-1473.0
1772222375.170187,35.0,218.0,-1478.0
1772222375.178187,36.0,218.0,-1480.0
1772222375.1779194,36.0,218.0,-1476.0
1772222375.1859193,37.0,218.0,-1469.0
1772222375.1970265,36.0,219.0,-1476.0
1772222375.2050264,35.0,220.0,-1481.0
1772222375.2055776,36.0,219.0,-1477.0
1772222375.2135775,37.0,218.0,-1472.0
1772222375.2195845,36.0,218.0,-1474.0
1772222375.2275844,35.0,218.0,-1480.0
1772222375.2216496,36.0,218.0,-1478.0
1772222375.2296495,36.0,218.0,-1474.0
1772222375.2231457,36.0,219.0,-1476.0
1772222375.2311456,36.0,220.0,-1482.0
1772222375.2246745,37.0,219.0,-1482.0
1772222375.2326744,37.0,219.0,-1476.0
1772222375.2287183,36.0,219.0,-1477.0
1772222375.2367182,37.0,219.0,-1483.0
1772222375.231688,37.0,220.0,-1482.0
1772222375.239688,37.0,219.0,-1479.0
1772222375.232712,36.0,218.0,-1477.0
1772222375.240712,36.0,218.0,-1481.0
1772222375.2358317,36.0,218.0,-1483.0
1772222375.2438316,37.0,219.0,-1478.0
1772222375.2380898,37.0,218.0,-1475.0
1772222375.2460897,36.0,218.0,-1479.0
1772222375.2523868,37.0,219.0,-1481.0
1772222375.2603867,37.0,218.0,-1479.0
1772222375.2787728,37.0,218.0,-1474.0
1772222375.2867727,37.0,219.0,-1476.0
1772222375.2879298,37.0,219.0,-1482.0
1772222375.2959297,37.0,218.0,-1480.0
1772222375.3315985,36.0,218.0,-1473.0
1772222375.3395984,37.0,219.0,-1478.0
1772222375.333599,37.0,219.0,-1483.0
1772222375.341599,38.0,219.0,-1481.0
1772222375.3356628,38.0,219.0,-1476.0
1772222375.3436627,38.0,220.0,-1477.0
1772222375.3372808,37.0,220.0,-1482.0
1772222375.3452806,37.0,219.0,-1480.0
1772222375.34032,37.0,219.0,-1476.0
1772222375.34832,37.0,219.0,-1476.0
1772222375.3433251,37.0,219.0,-1481.0
1772222375.351325,36.0,219.0,-1483.0
1772222375.3456755,37.0,218.0,-1477.0
1772222375.3536754,37.0,219.0,-1475.0
1772222375.3494039,37.0,219.0,-1479.0
1772222375.3574038,36.0,217.0,-1482.0
1772222375.3650613,35.0,216.0,-1477.0
1772222375.3730612,36.0,218.0,-1471.0
1772222375.400892,37.0,219.0,-1478.0
1772222375.408892,37.0,218.0,-1484.0
1772222375.4287612,37.0,218.0,-1478.0
1772222375.4367611,37.0,218.0,-1475.0
1772222375.4447873,36.0,218.0,-1477.0
1772222375.4527872,36.0,219.0,-1480.0
1772222375.446848,35.0,217.0,-1476.0
1772222375.4548478,35.0,216.0,-1471.0
1772222375.4483318,36.0,217.0,-1471.0
1772222375.4563317,36.0,217.0,-1476.0
1772222375.451892,36.0,216.0,-1472.0
1772222375.4598918,36.0,217.0,-1465.0
1772222375.4555206,38.0,218.0,-1469.0
1772222375.4635205,38.0,218.0,-1479.0
1772222375.496036,38.0,218.0,-1479.0
1772222375.504036,36.0,218.0,-1474.0
1772222375.5038705,36.0,219.0,-1474.0
1772222375.5118704,37.0,219.0,-1478.0
1772222375.524665,36.0,220.0,-1480.0
1772222375.532665,37.0,219.0,-1476.0
1772222375.5476146,38.0,219.0,-1475.0
1772222375.5556145,37.0,219.0,-1479.0
1772222375.5490294,38.0,219.0,-1481.0
1772222375.5570292,37.0,219.0,-1475.0
1772222375.55109,36.0,217.0,-1472.0
1772222375.55909,37.0,217.0,-1477.0
1772222375.5527046,37.0,218.0,-1482.0
1772222375.5607045,37.0,218.0,-1476.0
1772222375.5541022,38.0,218.0,-1471.0
1772222375.562102,38.0,218.0,-1474.0
1772222375.5557458,37.0,219.0,-1480.0
1772222375.5637457,37.0,219.0,-1475.0
1772222375.5578845,36.0,218.0,-1470.0
1772222375.5658844,36.0,218.0,-1470.0
1772222375.5618992,37.0,218.0,-1474.0
1772222375.569899,36.0,217.0,-1475.0
1772222375.5641959,37.0,218.0,-1469.0
1772222375.5721958,38.0,219.0,-1470.0
1772222375.5654943,38.0,219.0,-1476.0
1772222375.5734942,39.0,218.0,-1475.0
1772222375.5686214,37.0,218.0,-1471.0
1772222375.5766213,36.0,218.0,-1472.0
1772222375.5716484,36.0,218.0,-1477.0
1772222375.5796483,36.0,217.0,-1478.0
1772222375.6124413,36.0,218.0,-1474.0
1772222375.6204412,36.0,218.0,-1472.0
1772222375.6208766,37.0,219.0,-1476.0
1772222375.6288764,38.0,218.0,-1476.0
1772222375.6409178,37.0,218.0,-1473.0
1772222375.6489177,37.0,218.0,-1469.0
1772222375.6428804,37.0,217.0,-1474.0
1772222375.6508803,36.0,217.0,-1478.0
1772222375.6511066,35.0,219.0,-1474.0
1772222375.6591065,35.0,219.0,-1470.0
1772222375.6659827,38.0,219.0,-1473.0
1772222375.6739826,37.0,218.0,-1478.0
1772222375.6676633,38.0,217.0,-1475.0
1772222375.6756632,37.0,218.0,-1470.0
1772222375.669155,37.0,217.0,-1471.0
1772222375.6771548,36.0,217.0,-1476.0
1772222375.6705916,36.0,218.0,-1476.0
1772222375.6785915,37.0,218.0,-1471.0
1772222375.6723928,37.0,219.0,-1473.0
1772222375.6803927,38.0,218.0,-1477.0
1772222375.6772544,38.0,218.0,-1477.0
1772222375.6852543,38.0,219.0,-1473.0
1772222375.6804285,38.0,219.0,-1472.0
1772222375.6884284,36.0,218.0,-1478.0
1772222375.6826735,35.0,217.0,-1478.0
1772222375.6906734,37.0,218.0,-1473.0
1772222375.6863062,37.0,218.0,-1471.0
1772222375.6943061,38.0,218.0,-1475.0
1772222375.6886113,38.0,217.0,-1477.0
1772222375.6966112,38.0,217.0,-1474.0
1772222375.6960418,37.0,218.0,-1469.0
1772222375.7040417,38.0,219.0,-1472.0
1772222375.7168546,37.0,219.0,-1479.0
1772222375.7248545,37.0,219.0,-1475.0
1772222375.7481961,38.0,220.0,-1473.0
1772222375.756196,38.0,220.0,-1476.0
1772222375.7612252,39.0,220.0,-1481.0
1772222375.7692251,39.0,219.0,-1478.0
1772222375.7672203,38.0,219.0,-1473.0
1772222375.7752202,38.0,220.0,-1476.0
1772222375.8012228,38.0,221.0,-1481.0
1772222375.8092227,37.0,220.0,-1480.0
1772222375.8263462,38.0,220.0,-1474.0
1772222375.834346,39.0,221.0,-1474.0
1772222375.8273594,37.0,218.0,-1480.0
1772222375.8353593,37.0,217.0,-1479.0
1772222375.8294551,36.0,216.0,-1474.0
1772222375.837455,34.0,215.0,-1474.0
1772222375.8309872,33.0,214.0,-1479.0
1772222375.838987,32.0,214.0,-1479.0
1772222375.8341248,33.0,214.0,-1473.0
1772222375.8421247,35.0,216.0,-1471.0
1772222375.8370595,34.0,216.0,-1474.0
1772222375.8450594,34.0,215.0,-1478.0
1772222375.8402596,34.0,215.0,-1471.0
1772222375.8482594,34.0,215.0,-1470.0
1772222375.8412957,33.0,214.0,-1478.0
1772222375.8492956,34.0,214.0,-1481.0
1772222375.8432844,33.0,213.0,-1478.0
1772222375.8512843,34.0,213.0,-1473.0
1772222375.846637,35.0,215.0,-1476.0
1772222375.854637,34.0,215.0,-1482.0
1772222375.8641465,33.0,214.0,-1479.0
1772222375.8721464,33.0,214.0,-1475.0
1772222375.8999743,33.0,214.0,-1477.0
1772222375.9079742,34.0,214.0,-1482.0
1772222375.9223552,33.0,214.0,-1479.0
1772222375.930355,34.0,213.0,-1473.0
1772222375.930777,34.0,213.0,-1473.0
1772222375.938777,33.0,213.0,-1479.0
1772222375.9469337,33.0,213.0,-1479.0
1772222375.9549336,34.0,213.0,-1473.0
1772222375.948417,34.0,214.0,-1473.0
1772222375.9564168,35.0,214.0,-1478.0
1772222375.9499142,34.0,213.0,-1479.0
1772222375.957914,34.0,214.0,-1472.0
1772222375.951542,33.0,214.0,-1471.0
1772222375.9595418,32.0,214.0,-1478.0
1772222375.9567978,33.0,214.0,-1481.0
1772222375.9647977,35.0,215.0,-1475.0
1772222375.9588377,35.0,215.0,-1471.0
1772222375.9668376,34.0,213.0,-1475.0
1772222375.9618187,35.0,213.0,-1480.0
1772222375.9698186,35.0,214.0,-1478.0
1772222375.966173,33.0,215.0,-1472.0
1772222375.9741728,33.0,216.0,-1475.0
1772222375.9771574,34.0,216.0,-1480.0
1772222375.9851573,34.0,216.0,-1476.0
1772222375.9999187,36.0,215.0,-1472.0
1772222376.0079186,36.0,215.0,-1475.0
1772222376.0279143,36.0,215.0,-1479.0
1772222376.0359142,35.0,216.0,-1476.0
1772222376.0510454,34.0,215.0,-1471.0
1772222376.0590453,34.0,214.0,-1473.0
1772222376.0525863,35.0,215.0,-1476.0
1772222376.0605862,35.0,216.0,-1476.0
1772222376.054146,34.0,215.0,-1471.0
1772222376.062146,35.0,216.0,-1471.0
1772222376.0584955,35.0,217.0,-1475.0
1772222376.0664954,34.0,215.0,-1477.0
1772222376.0605197,34.0,214.0,-1471.0
1772222376.0685196,36.0,216.0,-1470.0
1772222376.062604,36.0,217.0,-1476.0
1772222376.0706038,36.0,216.0,-1477.0
1772222376.0661643,35.0,215.0,-1472.0
1772222376.0741642,35.0,215.0,-1469.0
1772222376.0681918,34.0,215.0,-1475.0
1772222376.0761917,34.0,215.0,-1481.0
1772222376.0839505,34.0,215.0,-1476.0
1772222376.0919504,35.0,216.0,-1471.0
1772222376.1198213,36.0,215.0,-1474.0
1772222376.1278212,34.0,215.0,-1477.0
1772222376.1419852,33.0,214.0,-1474.0
1772222376.149985,33.0,215.0,-1469.0
1772222376.1645138,33.0,215.0,-1471.0
1772222376.1725137,33.0,214.0,-1475.0
1772222376.1662514,34.0,214.0,-1473.0
1772222376.1742513,34.0,214.0,-1469.0
1772222376.1678357,33.0,214.0,-1472.0
1772222376.1758356,34.0,212.0,-1475.0
1772222376.170916,34.0,213.0,-1473.0
1772222376.178916,33.0,212.0,-1466.0
1772222376.1739416,33.0,212.0,-1466.0
1772222376.1819415,34.0,213.0,-1470.0
1772222376.1759462,35.0,214.0,-1472.0
1772222376.1839461,37.0,215.0,-1468.0
1772222376.1783178,35.0,215.0,-1468.0
1772222376.1863177,35.0,215.0,-1476.0
1772222376.1798322,35.0,215.0,-1480.0
1772222376.187832,34.0,215.0,-1474.0
1772222376.1808538,35.0,215.0,-1471.0
1772222376.1888537,35.0,216.0,-1476.0
1772222376.1838853,37.0,215.0,-1479.0
1772222376.1918852,35.0,214.0,-1476.0
1772222376.1868994,34.0,214.0,-1471.0
1772222376.1948993,34.0,215.0,-1474.0
1772222376.1951802,34.0,214.0,-1476.0
1772222376.20318,33.0,214.0,-1473.0
1772222376.2091959,34.0,214.0,-1470.0
1772222376.2171957,35.0,214.0,-1472.0
1772222376.217186,34.0,215.0,-1476.0
1772222376.2251859,35.0,214.0,-1475.0
1772222376.2193859,35.0,215.0,-1469.0
1772222376.2273858,35.0,215.0,-1471.0
1772222376.263764,34.0,214.0,-1475.0
1772222376.2717638,34.0,214.0,-1475.0
1772222376.2990155,34.0,215.0,-1470.0
1772222376.3070154,34.0,215.0,-1472.0
1772222376.3077743,41.0,220.0,-1469.0
1772222376.3157742,40.0,219.0,-1479.0
1772222376.3246171,39.0,219.0,-1479.0
1772222376.332617,39.0,220.0,-1469.0
1772222376.3261285,41.0,222.0,-1470.0
1772222376.3341284,39.0,221.0,-1476.0
1772222376.327687,40.0,220.0,-1475.0
1772222376.335687,40.0,220.0,-1473.0
1772222376.332562,41.0,219.0,-1470.0
1772222376.3405619,42.0,220.0,-1475.0
1772222376.3351254,41.0,220.0,-1477.0
1772222376.3431253,39.0,219.0,-1471.0
1772222376.337188,39.0,219.0,-1469.0
1772222376.345188,39.0,219.0,-1475.0
1772222376.3409255,39.0,218.0,-1477.0
1772222376.3489254,39.0,218.0,-1472.0
1772222376.3429475,40.0,219.0,-1469.0
1772222376.3509474,39.0,220.0,-1473.0
1772222376.351612,39.0,219.0,-1477.0
1772222376.359612,37.0,218.0,-1475.0
1772222376.3663082,38.0,219.0,-1470.0
1772222376.374308,39.0,218.0,-1473.0
1772222376.3743072,38.0,218.0,-1476.0
1772222376.382307,40.0,218.0,-1475.0
1772222376.403792,40.0,219.0,-1471.0
1772222376.4117918,40.0,218.0,-1472.0
1772222376.4060547,39.0,219.0,-1477.0
1772222376.4140546,38.0,218.0,-1475.0
1772222376.417773,39.0,219.0,-1469.0
1772222376.425773,39.0,219.0,-1468.0
1772222376.452018,40.0,218.0,-1477.0
1772222376.460018,39.0,219.0,-1477.0
1772222376.4740143,40.0,219.0,-1471.0
1772222376.4820142,40.0,219.0,-1471.0
1772222376.4756052,39.0,218.0,-1477.0
1772222376.4836051,39.0,219.0,-1476.0
1772222376.4773216,39.0,219.0,-1471.0
1772222376.4853215,39.0,219.0,-1470.0
1772222376.4787745,40.0,220.0,-1472.0
1772222376.4867744,40.0,219.0,-1473.0
1772222376.4830668,39.0,219.0,-1475.0
1772222376.4910667,39.0,219.0,-1471.0
1772222376.4860654,38.0,218.0,-1474.0
1772222376.4940653,38.0,218.0,-1478.0
1772222376.4870665,38.0,218.0,-1474.0
1772222376.4950664,38.0,218.0,-1469.0
1772222376.492453,39.0,219.0,-1471.0
1772222376.500453,39.0,219.0,-1477.0
1772222376.506619,39.0,219.0,-1474.0
1772222376.5146189,39.0,221.0,-1469.0
1772222376.5410483,38.0,219.0,-1470.0
1772222376.5490482,37.0,217.0,-1475.0
1772222376.5585542,37.0,217.0,-1475.0
1772222376.566554,38.0,217.0,-1470.0
1772222376.5676625,38.0,218.0,-1470.0
1772222376.5756624,38.0,218.0,-1475.0
1772222376.5821753,39.0,218.0,-1475.0
1772222376.5901752,38.0,218.0,-1469.0
1772222376.5838187,39.0,218.0,-1465.0
1772222376.5918186,40.0,218.0,-1471.0
1772222376.585779,38.0,218.0,-1471.0
1772222376.5937788,37.0,217.0,-1466.0
1772222376.587288,38.0,218.0,-1466.0
1772222376.5952878,39.0,218.0,-1472.0
1772222376.5913463,39.0,219.0,-1474.0
1772222376.5993462,39.0,219.0,-1472.0
1772222376.595097,38.0,219.0,-1473.0
1772222376.603097,38.0,217.0,-1476.0
1772222376.5976005,38.0,217.0,-1478.0
1772222376.6056004,37.0,218.0,-1475.0
1772222376.5989335,36.0,218.0,-1470.0
1772222376.6069334,37.0,219.0,-1473.0
1772222376.6010096,37.0,217.0,-1477.0
1772222376.6090095,36.0,216.0,-1474.0
1772222376.6040096,36.0,217.0,-1469.0
1772222376.6120095,37.0,216.0,-1469.0
1772222376.6070092,38.0,217.0,-1477.0
1772222376.615009,37.0,217.0,-1475.0
1772222376.6462371,37.0,216.0,-1469.0
1772222376.654237,36.0,217.0,-1469.0
1772222376.7176504,35.0,216.0,-1475.0
1772222376.7256503,35.0,216.0,-1475.0
1772222376.7198272,36.0,217.0,-1469.0
1772222376.727827,36.0,217.0,-1467.0
1772222376.7214713,37.0,217.0,-1475.0
1772222376.7294712,37.0,216.0,-1477.0
1772222376.7232425,37.0,216.0,-1469.0
1772222376.7312424,36.0,217.0,-1469.0
1772222376.7247849,36.0,217.0,-1476.0
1772222376.7327847,37.0,216.0,-1479.0
1772222376.7268386,37.0,216.0,-1475.0
1772222376.7348385,37.0,217.0,-1471.0
1772222376.7284083,37.0,217.0,-1474.0
1772222376.7364082,37.0,217.0,-1478.0
1772222376.7314725,37.0,216.0,-1474.0
1772222376.7394724,37.0,217.0,-1470.0
1772222376.7338853,37.0,217.0,-1473.0
1772222376.7418852,38.0,217.0,-1479.0
1772222376.735974,36.0,217.0,-1474.0
1772222376.743974,37.0,218.0,-1469.0
1772222376.7389686,38.0,217.0,-1471.0
1772222376.7469685,37.0,217.0,-1476.0
1772222376.742174,35.0,216.0,-1474.0
1772222376.7501738,35.0,216.0,-1468.0
1772222376.743193,35.0,216.0,-1468.0
1772222376.7511928,35.0,216.0,-1475.0
1772222376.7462175,36.0,217.0,-1474.0
1772222376.7542174,36.0,216.0,-1472.0
1772222376.76053,36.0,216.0,-1471.0
1772222376.76853,38.0,218.0,-1477.0
1772222376.7943885,37.0,216.0,-1480.0
1772222376.8023884,36.0,216.0,-1474.0
1772222376.8245869,36.0,217.0,-1473.0
1772222376.8325868,36.0,217.0,-1477.0
1772222376.841984,36.0,216.0,-1480.0
1772222376.849984,36.0,216.0,-1476.0
1772222376.8438947,37.0,217.0,-1471.0
1772222376.8518946,36.0,216.0,-1476.0
1772222376.8453438,37.0,216.0,-1478.0
1772222376.8533437,37.0,217.0,-1475.0
1772222376.8470416,37.0,217.0,-1471.0
1772222376.8550415,36.0,216.0,-1473.0
1772222376.8519883,34.0,215.0,-1476.0
1772222376.8599882,35.0,216.0,-1474.0
1772222376.8535523,37.0,218.0,-1468.0
1772222376.8615522,37.0,218.0,-1471.0
1772222376.8585262,37.0,218.0,-1475.0
1772222376.8665261,37.0,217.0,-1473.0
1772222376.85994,37.0,216.0,-1468.0
1772222376.86794,36.0,216.0,-1471.0
1772222376.8615663,36.0,216.0,-1477.0
1772222376.8695662,37.0,216.0,-1477.0
1772222376.882299,37.0,216.0,-1472.0
1772222376.8902988,36.0,217.0,-1471.0
1772222376.9087763,36.0,216.0,-1476.0
1772222376.9167762,36.0,216.0,-1478.0
1772222376.9194534,36.0,217.0,-1473.0
1772222376.9274533,36.0,217.0,-1471.0
1772222376.9514637,36.0,217.0,-1474.0
1772222376.9594636,35.0,217.0,-1480.0
1772222376.9606044,36.0,217.0,-1473.0
1772222376.9686043,37.0,217.0,-1468.0
1772222376.9875026,36.0,217.0,-1473.0
1772222376.9955025,36.0,217.0,-1477.0
1772222376.9891613,35.0,216.0,-1472.0
1772222376.9971611,35.0,216.0,-1468.0
1772222376.9905632,35.0,216.0,-1468.0
1772222376.998563,36.0,215.0,-1470.0
1772222376.9923482,36.0,216.0,-1467.0
1772222377.000348,35.0,216.0,-1459.0
1772222376.9963834,34.0,215.0,-1462.0
1772222377.0043833,34.0,216.0,-1468.0
1772222376.99893,34.0,217.0,-1468.0
1772222377.0069299,36.0,216.0,-1465.0
1772222377.0004852,35.0,215.0,-1469.0
1772222377.008485,34.0,214.0,-1473.0
1772222377.0024335,36.0,216.0,-1473.0
1772222377.0104334,36.0,216.0,-1468.0
1772222377.0047307,36.0,216.0,-1466.0
1772222377.0127306,36.0,217.0,-1472.0
1772222377.0077868,36.0,217.0,-1473.0
1772222377.0157866,36.0,217.0,-1469.0
1772222377.0666504,36.0,217.0,-1466.0
1772222377.0746503,36.0,217.0,-1474.0
1772222377.088442,36.0,217.0,-1475.0
1772222377.096442,36.0,217.0,-1470.0
1772222377.0900097,35.0,216.0,-1467.0
1772222377.0980096,35.0,216.0,-1470.0
1772222377.0914729,37.0,217.0,-1474.0
1772222377.0994728,36.0,217.0,-1469.0
1772222377.0929596,35.0,217.0,-1464.0
1772222377.1009595,36.0,217.0,-1468.0
1772222377.0960374,37.0,217.0,-1473.0
1772222377.1040373,37.0,217.0,-1472.0
1772222377.0992186,36.0,217.0,-1466.0
1772222377.1072185,36.0,216.0,-1467.0
1772222377.1025739,36.0,217.0,-1473.0
1772222377.1105738,36.0,218.0,-1472.0
1772222377.1049356,37.0,217.0,-1465.0
1772222377.1129355,37.0,217.0,-1466.0
1772222377.1080897,37.0,218.0,-1472.0
1772222377.1160896,34.0,215.0,-1473.0
1772222377.1101356,34.0,214.0,-1467.0
1772222377.1181355,35.0,215.0,-1467.0
1772222377.12762,36.0,216.0,-1472.0
1772222377.1356199,36.0,216.0,-1472.0
1772222377.152378,36.0,216.0,-1467.0
1772222377.160378,36.0,217.0,-1463.0
1772222377.1607265,37.0,217.0,-1470.0
1772222377.1687264,37.0,218.0,-1472.0
1772222377.1811724,36.0,216.0,-1468.0
1772222377.1891723,35.0,215.0,-1465.0
1772222377.212093,35.0,216.0,-1469.0
1772222377.220093,36.0,217.0,-1471.0
1772222377.2134848,37.0,218.0,-1469.0
1772222377.2214847,38.0,218.0,-1464.0
1772222377.2152424,38.0,217.0,-1467.0
1772222377.2232423,37.0,216.0,-1471.0
1772222377.2167938,37.0,217.0,-1470.0
1772222377.2247937,36.0,217.0,-1466.0
1772222377.2194479,35.0,217.0,-1468.0
1772222377.2274477,35.0,218.0,-1473.0
1772222377.2204723,36.0,217.0,-1471.0
1772222377.2284722,36.0,217.0,-1464.0
1772222377.2237334,37.0,217.0,-1465.0
1772222377.2317333,36.0,216.0,-1472.0
1772222377.2273784,36.0,216.0,-1472.0
1772222377.2353783,36.0,216.0,-1464.0
1772222377.2283812,35.0,217.0,-1463.0
1772222377.236381,36.0,217.0,-1467.0
1772222377.2307847,37.0,217.0,-1467.0
1772222377.2387846,36.0,217.0,-1461.0
1772222377.2337835,37.0,217.0,-1459.0
1772222377.2417834,36.0,216.0,-1463.0
1772222377.2359781,36.0,217.0,-1466.0
1772222377.243978,36.0,217.0,-1462.0
1772222377.2404516,36.0,217.0,-1461.0
1772222377.2484515,36.0,217.0,-1469.0
1772222377.2552514,38.0,217.0,-1474.0
1772222377.2632513,36.0,217.0,-1471.0
1772222377.2866051,35.0,216.0,-1467.0
1772222377.294605,34.0,215.0,-1472.0
1772222377.2878695,35.0,216.0,-1476.0
1772222377.2958694,35.0,217.0,-1471.0
1772222377.2893875,36.0,218.0,-1468.0
1772222377.2973874,36.0,218.0,-1469.0
1772222377.3225033,34.0,216.0,-1473.0
1772222377.3305032,34.0,216.0,-1471.0
1772222377.330354,34.0,216.0,-1467.0
1772222377.3383539,35.0,216.0,-1467.0
1772222377.352124,36.0,217.0,-1474.0
1772222377.3601239,35.0,218.0,-1472.0
1772222377.3537185,35.0,217.0,-1465.0
1772222377.3617184,36.0,216.0,-1466.0
1772222377.355396,37.0,216.0,-1473.0
1772222377.363396,36.0,217.0,-1473.0
1772222377.3574514,35.0,217.0,-1467.0
1772222377.3654513,35.0,217.0,-1466.0
1772222377.3616471,35.0,218.0,-1473.0
1772222377.369647,34.0,217.0,-1475.0
1772222377.3637028,35.0,216.0,-1470.0
1772222377.3717027,36.0,216.0,-1467.0
1772222377.364753,36.0,217.0,-1471.0
1772222377.372753,36.0,217.0,-1475.0
1772222377.3667164,36.0,217.0,-1471.0
1772222377.3747163,37.0,218.0,-1468.0
1772222377.3712845,37.0,218.0,-1472.0
1772222377.3792844,36.0,218.0,-1476.0
1772222377.3884475,34.0,218.0,-1472.0
1772222377.3964474,36.0,216.0,-1467.0
1772222377.4124372,36.0,217.0,-1469.0
1772222377.420437,38.0,217.0,-1475.0
1772222377.421135,37.0,217.0,-1476.0
1772222377.4291348,35.0,218.0,-1468.0
1772222377.4229226,35.0,217.0,-1469.0
1772222377.4309225,35.0,216.0,-1475.0
1772222377.4431655,35.0,217.0,-1473.0
1772222377.4511654,36.0,217.0,-1467.0
1772222377.4622703,37.0,217.0,-1467.0
1772222377.4702702,36.0,217.0,-1474.0
1772222377.4637039,36.0,217.0,-1475.0
1772222377.4717038,36.0,217.0,-1471.0
1772222377.465312,36.0,217.0,-1466.0
1772222377.473312,37.0,217.0,-1471.0
1772222377.466749,37.0,218.0,-1475.0
1772222377.4747488,36.0,218.0,-1469.0
1772222377.471177,36.0,217.0,-1467.0
1772222377.479177,37.0,217.0,-1473.0
1772222377.4744241,37.0,218.0,-1475.0
1772222377.482424,37.0,217.0,-1471.0
1772222377.4768744,36.0,217.0,-1466.0
1772222377.4848742,36.0,217.0,-1470.0
1772222377.4796216,37.0,217.0,-1475.0
1772222377.4876215,36.0,218.0,-1472.0
1772222377.4806645,36.0,218.0,-1467.0
1772222377.4886644,37.0,217.0,-1468.0
1772222377.500015,37.0,216.0,-1475.0
1772222377.508015,37.0,217.0,-1473.0
1772222377.5235133,37.0,217.0,-1467.0
1772222377.5315132,36.0,218.0,-1467.0
1772222377.531417,35.0,218.0,-1473.0
1772222377.5394168,36.0,217.0,-1474.0
1772222377.5580482,37.0,217.0,-1466.0
1772222377.5660481,37.0,216.0,-1468.0
1772222377.5927875,37.0,216.0,-1471.0
1772222377.6007874,37.0,217.0,-1471.0
1772222377.5943773,37.0,218.0,-1465.0
1772222377.6023772,36.0,218.0,-1464.0
1772222377.5959172,37.0,218.0,-1469.0
1772222377.6039171,37.0,217.0,-1472.0
1772222377.600743,37.0,218.0,-1468.0
1772222377.608743,37.0,219.0,-1464.0
1772222377.6051204,38.0,218.0,-1467.0
1772222377.6131203,37.0,217.0,-1471.0
1772222377.6073961,37.0,217.0,-1466.0
1772222377.615396,37.0,217.0,-1462.0
1772222377.6104388,38.0,218.0,-1465.0
1772222377.6184387,37.0,218.0,-1471.0
1772222377.6600559,36.0,218.0,-1466.0
1772222377.6680558,36.0,218.0,-1462.0
1772222377.6912255,37.0,218.0,-1465.0
1772222377.6992254,38.0,218.0,-1471.0
1772222377.712766,38.0,217.0,-1468.0
1772222377.7207658,38.0,218.0,-1464.0
1772222377.7142549,38.0,219.0,-1466.0
1772222377.7222548,38.0,219.0,-1470.0
1772222377.7163231,38.0,218.0,-1472.0
1772222377.724323,38.0,219.0,-1467.0
1772222377.7179039,38.0,219.0,-1466.0
1772222377.7259037,39.0,219.0,-1471.0
1772222377.719548,39.0,220.0,-1472.0
1772222377.727548,38.0,219.0,-1466.0
1772222377.724604,39.0,219.0,-1465.0
1772222377.7326038,38.0,218.0,-1472.0
1772222377.7276616,37.0,216.0,-1472.0
1772222377.7356615,38.0,217.0,-1464.0
1772222377.7291481,38.0,220.0,-1462.0
1772222377.737148,39.0,219.0,-1467.0
1772222377.73225,41.0,220.0,-1471.0
1772222377.7402499,40.0,220.0,-1466.0
1772222377.7516584,39.0,221.0,-1462.0
1772222377.7596583,38.0,221.0,-1467.0
1772222377.7860434,38.0,219.0,-1472.0
1772222377.7940433,37.0,218.0,-1469.0
1772222377.8075988,38.0,218.0,-1464.0
1772222377.8155987,38.0,220.0,-1468.0
1772222377.8430731,40.0,220.0,-1473.0
1772222377.851073,40.0,219.0,-1470.0
1772222377.844285,39.0,219.0,-1466.0
1772222377.852285,39.0,219.0,-1466.0
1772222377.846353,40.0,220.0,-1470.0
1772222377.854353,39.0,220.0,-1470.0
1772222377.8478482,39.0,219.0,-1463.0
1772222377.855848,39.0,220.0,-1463.0
1772222377.849423,39.0,220.0,-1469.0
1772222377.8574228,39.0,219.0,-1467.0
1772222377.8520803,38.0,218.0,-1461.0
1772222377.8600802,39.0,220.0,-1460.0
1772222377.8551438,39.0,220.0,-1468.0
1772222377.8631437,38.0,219.0,-1469.0
1772222377.8571854,38.0,220.0,-1465.0
1772222377.8651853,39.0,220.0,-1462.0
1772222377.8602762,39.0,221.0,-1468.0
1772222377.8682761,40.0,219.0,-1473.0
1772222377.8649502,40.0,219.0,-1469.0
1772222377.87295,39.0,218.0,-1465.0
1772222377.8661742,39.0,218.0,-1468.0
1772222377.874174,39.0,220.0,-1473.0
1772222377.8727472,39.0,221.0,-1471.0
1772222377.880747,38.0,221.0,-1463.0
1772222377.886756,38.0,221.0,-1467.0
1772222377.8947558,39.0,220.0,-1473.0
1772222377.8887548,38.0,219.0,-1469.0
1772222377.8967547,39.0,219.0,-1463.0
1772222377.913225,40.0,219.0,-1464.0
1772222377.9212248,38.0,218.0,-1471.0
1772222377.922281,38.0,218.0,-1469.0
1772222377.930281,38.0,218.0,-1462.0
1772222377.9242852,37.0,218.0,-1460.0
1772222377.932285,38.0,218.0,-1463.0
1772222377.94688,39.0,219.0,-1465.0
1772222377.95488,38.0,219.0,-1458.0
1772222377.9569938,38.0,219.0,-1458.0
1772222377.9649937,39.0,218.0,-1463.0
1772222377.9866686,39.0,219.0,-1466.0
1772222377.9946685,39.0,220.0,-1465.0
1772222377.9886963,39.0,222.0,-1465.0
1772222377.9966962,39.0,220.0,-1472.0
1772222377.9901927,39.0,220.0,-1476.0
1772222377.9981925,38.0,220.0,-1472.0
1772222377.9927008,38.0,218.0,-1468.0
1772222378.0007007,37.0,218.0,-1471.0
1772222377.995384,37.0,220.0,-1477.0
1772222378.0033839,36.0,219.0,-1471.0
1772222377.9996781,37.0,220.0,-1466.0
1772222378.007678,38.0,218.0,-1467.0
1772222378.0020573,38.0,217.0,-1471.0
1772222378.0100572,39.0,218.0,-1471.0
1772222378.0050828,38.0,217.0,-1464.0
1772222378.0130827,37.0,217.0,-1466.0
1772222378.0201757,37.0,219.0,-1469.0
1772222378.0281756,38.0,219.0,-1468.0
1772222378.054133,40.0,219.0,-1464.0
1772222378.0621328,38.0,219.0,-1464.0
1772222378.0793698,37.0,218.0,-1470.0
1772222378.0873697,38.0,218.0,-1470.0
1772222378.089025,37.0,219.0,-1462.0
1772222378.097025,37.0,219.0,-1462.0
1772222378.107642,37.0,217.0,-1470.0
1772222378.1156418,37.0,218.0,-1472.0
1772222378.1086836,37.0,218.0,-1467.0
1772222378.1166835,37.0,218.0,-1463.0
1772222378.1110168,38.0,218.0,-1469.0
1772222378.1190166,38.0,217.0,-1471.0
1772222378.1159854,36.0,216.0,-1466.0
1772222378.1239853,37.0,217.0,-1463.0
1772222378.1189876,38.0,218.0,-1466.0
1772222378.1269875,37.0,218.0,-1469.0
1772222378.1215909,37.0,218.0,-1468.0
1772222378.1295907,37.0,220.0,-1463.0
1772222378.1241713,38.0,218.0,-1465.0
1772222378.1321712,39.0,218.0,-1471.0
1772222378.1428852,38.0,217.0,-1470.0
1772222378.150885,38.0,216.0,-1464.0
1772222378.176155,37.0,217.0,-1465.0
1772222378.184155,35.0,217.0,-1471.0
1772222378.1933455,36.0,217.0,-1470.0
1772222378.2013454,37.0,217.0,-1464.0
1772222378.23471,38.0,218.0,-1466.0
1772222378.2427099,40.0,218.0,-1471.0
1772222378.2367914,37.0,217.0,-1472.0
1772222378.2447913,36.0,217.0,-1463.0
1772222378.2385318,37.0,218.0,-1461.0
1772222378.2465317,37.0,217.0,-1466.0
1772222378.240198,37.0,217.0,-1471.0
1772222378.2481978,38.0,218.0,-1465.0
1772222378.242631,39.0,218.0,-1461.0
1772222378.2506309,38.0,218.0,-1465.0
1772222378.2467067,38.0,218.0,-1468.0
1772222378.2547066,37.0,216.0,-1463.0
1772222378.249289,38.0,216.0,-1458.0
1772222378.257289,37.0,217.0,-1462.0
1772222378.2498224,37.0,217.0,-1471.0
1772222378.2578223,37.0,218.0,-1465.0
1772222378.2518685,37.0,218.0,-1461.0
1772222378.2598684,38.0,217.0,-1463.0
1772222378.2548668,37.0,216.0,-1470.0
1772222378.2628667,37.0,216.0,-1469.0
1772222378.256853,37.0,217.0,-1465.0
1772222378.264853,37.0,217.0,-1465.0
1772222378.2578573,36.0,218.0,-1468.0
1772222378.2658572,37.0,217.0,-1470.0
1772222378.2613404,38.0,216.0,-1462.0
1772222378.2693403,37.0,217.0,-1460.0
1772222378.2775142,36.0,217.0,-1467.0
1772222378.285514,36.0,216.0,-1466.0
1772222378.3121092,36.0,216.0,-1461.0
1772222378.3201091,38.0,217.0,-1458.0
1772222378.3140461,38.0,218.0,-1461.0
1772222378.322046,37.0,217.0,-1462.0
1772222378.3567889,37.0,217.0,-1461.0
1772222378.3647888,37.0,217.0,-1459.0
1772222378.3579419,37.0,217.0,-1465.0
1772222378.3659418,38.0,216.0,-1469.0
1772222378.3598948,38.0,215.0,-1463.0
1772222378.3678946,37.0,216.0,-1460.0
1772222378.3614538,36.0,217.0,-1464.0
1772222378.3694537,37.0,217.0,-1468.0
1772222378.3660085,38.0,217.0,-1463.0
1772222378.3740084,38.0,217.0,-1461.0
1772222378.3681672,38.0,217.0,-1465.0
1772222378.376167,36.0,216.0,-1471.0
1772222378.3711689,37.0,215.0,-1469.0
1772222378.3791687,37.0,216.0,-1463.0
1772222378.3722122,37.0,217.0,-1465.0
1772222378.380212,37.0,217.0,-1469.0
1772222378.3751526,37.0,216.0,-1468.0
1772222378.3831525,37.0,216.0,-1464.0
1772222378.3762066,38.0,217.0,-1462.0
1772222378.3842065,37.0,216.0,-1465.0
1772222378.379315,37.0,216.0,-1466.0
1772222378.3873148,37.0,216.0,-1461.0
1772222378.4245872,38.0,216.0,-1461.0
1772222378.4325871,37.0,216.0,-1464.0
1772222378.4424284,36.0,215.0,-1464.0
1772222378.4504282,36.0,216.0,-1461.0
1772222378.46449,37.0,216.0,-1460.0
1772222378.4724898,36.0,216.0,-1466.0
1772222378.4665012,37.0,218.0,-1468.0
1772222378.4745011,38.0,218.0,-1466.0
1772222378.4685984,36.0,217.0,-1461.0
1772222378.4765983,36.0,215.0,-1466.0
1772222378.470167,36.0,216.0,-1472.0
1772222378.4781668,36.0,215.0,-1468.0
1772222378.472188,37.0,215.0,-1464.0
1772222378.480188,37.0,217.0,-1465.0
1772222378.4762518,38.0,219.0,-1471.0
1772222378.4842517,37.0,219.0,-1467.0
1772222378.4778907,36.0,216.0,-1464.0
1772222378.4858906,36.0,215.0,-1465.0
1772222378.4809406,38.0,216.0,-1469.0
1772222378.4889405,37.0,216.0,-1470.0
1772222378.4849684,36.0,217.0,-1465.0
1772222378.4929683,36.0,217.0,-1464.0
1772222378.5004978,37.0,219.0,-1468.0
1772222378.5084977,37.0,216.0,-1467.0
1772222378.5493453,38.0,214.0,-1461.0
1772222378.5573452,37.0,214.0,-1459.0
1772222378.5579803,36.0,217.0,-1465.0
1772222378.5659802,38.0,218.0,-1469.0
1772222378.5748684,37.0,217.0,-1463.0
1772222378.5828683,37.0,216.0,-1459.0
1772222378.5763218,36.0,218.0,-1465.0
1772222378.5843217,37.0,219.0,-1472.0
1772222378.578169,36.0,218.0,-1469.0
1772222378.586169,37.0,215.0,-1464.0
1772222378.5797906,38.0,215.0,-1469.0
1772222378.5877905,38.0,216.0,-1474.0
1772222378.5817611,37.0,216.0,-1470.0
1772222378.589761,36.0,217.0,-1465.0
1772222378.5838058,37.0,218.0,-1468.0
1772222378.5918057,38.0,216.0,-1473.0
1772222378.586381,38.0,217.0,-1470.0
1772222378.5943809,36.0,217.0,-1464.0
1772222378.5899315,37.0,217.0,-1465.0
1772222378.5979314,37.0,218.0,-1471.0
1772222378.5915318,37.0,218.0,-1469.0
1772222378.5995317,37.0,217.0,-1461.0
1772222378.5940213,39.0,217.0,-1461.0
1772222378.6020212,38.0,216.0,-1468.0
1772222378.5971313,36.0,216.0,-1467.0
1772222378.6051311,36.0,217.0,-1459.0
1772222378.598599,37.0,217.0,-1456.0
1772222378.6065989,38.0,218.0,-1462.0
1772222378.6006336,39.0,216.0,-1464.0
1772222378.6086335,38.0,215.0,-1458.0
1772222378.601638,38.0,216.0,-1456.0
1772222378.609638,37.0,217.0,-1462.0
1772222378.652174,36.0,216.0,-1467.0
1772222378.660174,38.0,217.0,-1465.0
1772222378.684237,40.0,217.0,-1464.0
1772222378.692237,39.0,217.0,-1468.0
1772222378.701504,37.0,216.0,-1469.0
1772222378.709504,36.0,217.0,-1465.0
1772222378.703192,37.0,218.0,-1464.0
1772222378.711192,36.0,216.0,-1467.0
1772222378.7048972,36.0,215.0,-1470.0
1772222378.712897,37.0,216.0,-1465.0
1772222378.7094388,36.0,215.0,-1461.0
1772222378.7174387,37.0,216.0,-1462.0
1772222378.7114625,37.0,216.0,-1468.0
1772222378.7194624,37.0,217.0,-1466.0
1772222378.7146432,37.0,217.0,-1461.0
1772222378.7226431,36.0,216.0,-1461.0
1772222378.7158756,36.0,215.0,-1467.0
1772222378.7238755,37.0,216.0,-1468.0
1772222378.7169046,36.0,216.0,-1462.0
1772222378.7249045,36.0,217.0,-1462.0
1772222378.719788,38.0,217.0,-1466.0
1772222378.727788,37.0,216.0,-1469.0
1772222378.7391403,36.0,216.0,-1463.0
1772222378.7471402,36.0,217.0,-1460.0
1772222378.7611675,36.0,215.0,-1465.0
1772222378.7691674,34.0,214.0,-1469.0
1772222378.7707074,35.0,216.0,-1464.0
1772222378.7787073,34.0,216.0,-1461.0
1772222378.7892478,35.0,216.0,-1464.0
1772222378.7972476,37.0,214.0,-1466.0
1772222378.791314,37.0,213.0,-1462.0
1772222378.7993138,36.0,215.0,-1461.0
1772222378.8005557,34.0,215.0,-1464.0
1772222378.8085556,35.0,215.0,-1469.0
1772222378.8302362,34.0,216.0,-1465.0
1772222378.838236,33.0,215.0,-1459.0
1772222378.8319037,33.0,213.0,-1459.0
1772222378.8399036,34.0,213.0,-1467.0
1772222378.8335912,36.0,213.0,-1465.0
1772222378.8415911,37.0,214.0,-1461.0
1772222378.8350978,33.0,214.0,-1462.0
1772222378.8430977,32.0,213.0,-1468.0
1772222378.8373466,33.0,213.0,-1468.0
1772222378.8453465,34.0,215.0,-1463.0
1772222378.8383644,35.0,215.0,-1463.0
1772222378.8463643,34.0,215.0,-1466.0
1772222378.8398888,35.0,214.0,-1469.0
1772222378.8478887,35.0,214.0,-1466.0
1772222378.84416,35.0,214.0,-1463.0
1772222378.85216,35.0,214.0,-1467.0
1772222378.8468406,34.0,213.0,-1470.0
1772222378.8548405,34.0,215.0,-1464.0
1772222378.8489003,34.0,215.0,-1460.0
1772222378.8569002,33.0,215.0,-1463.0
1772222378.8519201,34.0,214.0,-1469.0
1772222378.85992,36.0,214.0,-1465.0
1772222378.8546295,36.0,214.0,-1458.0
1772222378.8626294,35.0,214.0,-1462.0
1772222378.8577032,35.0,215.0,-1467.0
1772222378.865703,35.0,215.0,-1464.0
1772222378.8716922,35.0,215.0,-1460.0
1772222378.879692,35.0,215.0,-1463.0
1772222378.9064686,34.0,215.0,-1468.0
1772222378.9144685,34.0,214.0,-1466.0
1772222378.9350317,36.0,215.0,-1463.0
1772222378.9430315,35.0,216.0,-1466.0
1772222378.9525552,34.0,215.0,-1470.0
1772222378.960555,34.0,215.0,-1470.0
1772222378.9541056,35.0,216.0,-1465.0
1772222378.9621055,34.0,214.0,-1465.0
1772222378.955831,35.0,214.0,-1470.0
1772222378.963831,34.0,213.0,-1471.0
1772222378.9573877,35.0,214.0,-1465.0
1772222378.9653876,34.0,215.0,-1464.0
1772222378.9589248,35.0,215.0,-1469.0
1772222378.9669247,34.0,216.0,-1472.0
1772222378.960359,33.0,215.0,-1466.0
1772222378.968359,34.0,214.0,-1462.0
1772222378.9624023,35.0,216.0,-1465.0
1772222378.9704022,36.0,215.0,-1466.0
1772222378.966412,35.0,214.0,-1465.0
1772222378.974412,34.0,215.0,-1463.0
1772222378.9694958,35.0,215.0,-1466.0
1772222378.9774957,35.0,214.0,-1470.0
1772222378.9739404,34.0,213.0,-1468.0
1772222378.9819403,34.0,214.0,-1461.0
1772222378.9769647,35.0,215.0,-1463.0
1772222378.9849646,34.0,215.0,-1468.0
1772222379.0152535,34.0,216.0,-1467.0
1772222379.0232534,35.0,216.0,-1463.0
1772222379.0418184,34.0,213.0,-1462.0
1772222379.0498183,33.0,212.0,-1468.0
1772222379.0441349,33.0,214.0,-1468.0
1772222379.0521348,35.0,214.0,-1461.0
1772222379.067771,35.0,215.0,-1459.0
1772222379.0757709,34.0,216.0,-1466.0
1772222379.0693135,34.0,214.0,-1465.0
1772222379.0773134,34.0,214.0,-1460.0
1772222379.0708265,34.0,215.0,-1462.0
1772222379.0788264,34.0,215.0,-1467.0
1772222379.072453,35.0,215.0,-1471.0
1772222379.080453,36.0,214.0,-1466.0
1772222379.075768,35.0,215.0,-1464.0
1772222379.083768,34.0,216.0,-1470.0
1772222379.0776076,34.0,215.0,-1476.0
1772222379.0856075,33.0,214.0,-1473.0
1772222379.0798836,35.0,215.0,-1468.0
1772222379.0878835,35.0,215.0,-1470.0
1772222379.0823684,34.0,215.0,-1475.0
1772222379.0903683,35.0,217.0,-1472.0
1772222379.13264,35.0,217.0,-1467.0
1772222379.1406398,33.0,215.0,-1466.0
1772222379.1555016,32.0,213.0,-1471.0
1772222379.1635015,34.0,215.0,-1470.0
1772222379.1805103,35.0,216.0,-1462.0
1772222379.1885102,34.0,215.0,-1460.0
1772222379.1815953,33.0,216.0,-1463.0
1772222379.1895952,33.0,217.0,-1459.0
1772222379.1832635,35.0,216.0,-1453.0
1772222379.1912634,34.0,215.0,-1455.0
1772222379.1846743,32.0,213.0,-1461.0
1772222379.1926742,32.0,212.0,-1464.0
1772222379.187243,30.0,211.0,-1458.0
1772222379.195243,29.0,211.0,-1459.0
1772222379.1889937,28.0,212.0,-1466.0
1772222379.1969936,29.0,212.0,-1470.0
1772222379.192825,29.0,212.0,-1465.0
1772222379.200825,29.0,210.0,-1463.0
1772222379.1948915,29.0,210.0,-1469.0
1772222379.2028913,29.0,210.0,-1469.0
1772222379.1968129,31.0,211.0,-1466.0
1772222379.2048128,29.0,209.0,-1463.0
1772222379.1988997,29.0,210.0,-1464.0
1772222379.2068996,28.0,213.0,-1468.0
1772222379.2019355,27.0,212.0,-1466.0
1772222379.2099354,27.0,210.0,-1462.0
1772222379.2499416,30.0,212.0,-1464.0
1772222379.2579415,29.0,211.0,-1468.0
1772222379.2715118,27.0,209.0,-1465.0
1772222379.2795117,28.0,210.0,-1458.0
1772222379.2739394,30.0,212.0,-1457.0
1772222379.2819393,28.0,212.0,-1461.0
1772222379.3096294,27.0,211.0,-1458.0
1772222379.3176293,28.0,210.0,-1452.0
1772222379.3127782,28.0,209.0,-1451.0
1772222379.3207781,30.0,210.0,-1456.0
1772222379.3144803,30.0,211.0,-1459.0
1772222379.3224802,30.0,210.0,-1453.0
1772222379.3159714,30.0,210.0,-1453.0
1772222379.3239713,30.0,211.0,-1462.0
1772222379.3181686,29.0,212.0,-1467.0
1772222379.3261685,29.0,211.0,-1465.0
1772222379.322987,29.0,210.0,-1462.0
1772222379.330987,29.0,211.0,-1466.0
1772222379.3250184,30.0,213.0,-1472.0
1772222379.3330183,28.0,212.0,-1467.0
1772222379.3295436,28.0,211.0,-1460.0
1772222379.3375435,28.0,211.0,-1464.0
1772222379.3310986,29.0,209.0,-1467.0
1772222379.3390985,29.0,209.0,-1463.0
1772222379.337631,29.0,210.0,-1459.0
1772222379.345631,28.0,209.0,-1460.0
1772222379.351201,28.0,210.0,-1464.0
1772222379.359201,28.0,211.0,-1461.0
1772222379.3791227,29.0,212.0,-1455.0
1772222379.3871226,29.0,211.0,-1455.0
1772222379.4130917,30.0,210.0,-1461.0
1772222379.4210916,31.0,210.0,-1462.0
1772222379.4221509,29.0,210.0,-1458.0
1772222379.4301507,28.0,210.0,-1459.0
1772222379.4565206,29.0,211.0,-1466.0
1772222379.4645205,28.0,210.0,-1467.0
1772222379.45853,29.0,211.0,-1464.0
1772222379.4665298,29.0,210.0,-1463.0
1772222379.4600868,30.0,209.0,-1468.0
1772222379.4680867,30.0,210.0,-1469.0
1772222379.4636114,30.0,211.0,-1464.0
1772222379.4716113,29.0,211.0,-1461.0
1772222379.4651945,29.0,211.0,-1463.0
1772222379.4731944,28.0,211.0,-1468.0
1772222379.4687917,28.0,211.0,-1464.0
1772222379.4767916,29.0,211.0,-1458.0
1772222379.4708745,29.0,211.0,-1462.0
1772222379.4788744,29.0,210.0,-1465.0
1772222379.4741607,30.0,209.0,-1461.0
1772222379.4821606,30.0,210.0,-1457.0
1772222379.475886,30.0,210.0,-1459.0
1772222379.483886,28.0,210.0,-1464.0
1772222379.5159516,28.0,211.0,-1462.0
1772222379.5239515,29.0,211.0,-1458.0
1772222379.517966,30.0,211.0,-1460.0
1772222379.525966,29.0,210.0,-1466.0
1772222379.5190258,28.0,211.0,-1468.0
1772222379.5270257,28.0,210.0,-1463.0
1772222379.5496895,29.0,211.0,-1463.0
1772222379.5576894,29.0,211.0,-1468.0
1772222379.5592434,29.0,209.0,-1469.0
1772222379.5672433,29.0,208.0,-1462.0
1772222379.5783594,29.0,210.0,-1460.0
1772222379.5863593,28.0,210.0,-1465.0
1772222379.5798283,28.0,209.0,-1468.0
1772222379.5878282,27.0,208.0,-1464.0
1772222379.581543,29.0,209.0,-1459.0
1772222379.5895429,28.0,210.0,-1461.0
1772222379.583017,28.0,211.0,-1464.0
1772222379.591017,29.0,211.0,-1459.0
1772222379.5889275,29.0,211.0,-1454.0
1772222379.5969274,29.0,210.0,-1457.0
1772222379.5909524,29.0,210.0,-1463.0
1772222379.5989523,29.0,211.0,-1461.0
1772222379.5940726,28.0,211.0,-1456.0
1772222379.6020725,28.0,210.0,-1460.0
1772222379.5956392,28.0,210.0,-1467.0
1772222379.6036391,29.0,210.0,-1466.0
1772222379.6306157,28.0,210.0,-1462.0
1772222379.6386156,29.0,210.0,-1466.0
1772222379.639907,29.0,209.0,-1469.0
1772222379.6479068,29.0,209.0,-1471.0
1772222379.6586301,29.0,210.0,-1466.0
1772222379.66663,28.0,210.0,-1466.0
1772222379.6844292,29.0,211.0,-1469.0
1772222379.692429,29.0,210.0,-1467.0
1772222379.6859987,29.0,210.0,-1462.0
1772222379.6939986,28.0,211.0,-1461.0
1772222379.6875613,28.0,211.0,-1467.0
1772222379.6955612,28.0,212.0,-1468.0
1772222379.6890335,29.0,212.0,-1462.0
1772222379.6970334,29.0,211.0,-1457.0
1772222379.6935475,30.0,210.0,-1459.0
1772222379.7015474,30.0,210.0,-1461.0
1772222379.6955996,29.0,211.0,-1457.0
1772222379.7035995,29.0,211.0,-1451.0
1772222379.6985898,28.0,211.0,-1454.0
1772222379.7065897,29.0,212.0,-1459.0
1772222379.69992,29.0,212.0,-1457.0
1772222379.7079198,29.0,211.0,-1452.0
1772222379.7024457,29.0,211.0,-1455.0
1772222379.7104456,29.0,211.0,-1461.0
1772222379.7156954,29.0,211.0,-1460.0
1772222379.7236953,30.0,212.0,-1459.0
1772222379.7359881,31.0,213.0,-1460.0
1772222379.743988,30.0,212.0,-1464.0
1772222379.7455368,28.0,211.0,-1463.0
1772222379.7535367,29.0,211.0,-1457.0
1772222379.7683408,30.0,211.0,-1459.0
1772222379.7763407,30.0,211.0,-1464.0
1772222379.7710474,30.0,212.0,-1465.0
1772222379.7790473,29.0,213.0,-1457.0
1772222379.7961967,30.0,213.0,-1457.0
1772222379.8041966,30.0,213.0,-1464.0
1772222379.798235,31.0,213.0,-1466.0
1772222379.8062348,31.0,211.0,-1460.0
1772222379.7999086,30.0,211.0,-1455.0
1772222379.8079085,29.0,213.0,-1459.0
1772222379.8019497,30.0,213.0,-1464.0
1772222379.8099496,30.0,212.0,-1459.0
1772222379.8049374,30.0,212.0,-1455.0
1772222379.8129373,31.0,212.0,-1459.0
1772222379.8086019,31.0,213.0,-1463.0
1772222379.8166018,31.0,212.0,-1460.0
1772222379.8110847,32.0,213.0,-1454.0
1772222379.8190846,31.0,213.0,-1459.0
1772222379.813128,31.0,212.0,-1463.0
1772222379.821128,30.0,211.0,-1462.0
1772222379.8302393,32.0,212.0,-1457.0
1772222379.8382392,32.0,213.0,-1458.0
1772222379.8572319,31.0,212.0,-1463.0
1772222379.8652318,31.0,212.0,-1461.0
1772222379.8592374,31.0,213.0,-1456.0
1772222379.8672373,31.0,214.0,-1458.0
1772222379.8718228,31.0,212.0,-1463.0
1772222379.8798227,32.0,212.0,-1463.0
1772222379.8732939,32.0,212.0,-1455.0
1772222379.8812938,32.0,213.0,-1453.0
1772222379.8994374,31.0,213.0,-1457.0
1772222379.9074373,30.0,212.0,-1462.0
1772222379.9078913,31.0,212.0,-1457.0
1772222379.9158912,31.0,212.0,-1453.0
1772222379.9317546,31.0,211.0,-1458.0
1772222379.9397545,30.0,211.0,-1460.0
