# team: unknown
# label: peace_baseline-EOG
# timestamp: 20260227_150236
# sample_rate: 250
# samples: 14566
# duration_sec: 61.689
# channels: EOG1,EOG2,EMG3
#
timestamp,EOG1,EOG2,EMG3
1772222494.2967296,-28.0,145.0,-1431.0
1772222494.3047295,-27.0,145.0,-1430.0
1772222494.301783,-28.0,144.0,-1427.0
1772222494.309783,-28.0,144.0,-1426.0
1772222494.3033388,-28.0,143.0,-1430.0
1772222494.3113387,-28.0,143.0,-1429.0
1772222494.3043685,-28.0,144.0,-1429.0
1772222494.3123684,-29.0,144.0,-1430.0
1772222494.3066792,-28.0,144.0,-1430.0
1772222494.3146791,-28.0,144.0,-1430.0
1772222494.3087232,-28.0,143.0,-1427.0
1772222494.316723,-28.0,144.0,-1427.0
1772222494.3129697,-27.0,144.0,-1428.0
1772222494.3209696,-29.0,143.0,-1428.0
1772222494.3150456,-29.0,143.0,-1428.0
1772222494.3230455,-29.0,143.0,-1427.0
1772222494.3194304,-28.0,143.0,-1428.0
1772222494.3274302,-28.0,143.0,-1428.0
1772222494.3224595,-28.0,143.0,-1427.0
1772222494.3304594,-28.0,144.0,-1426.0
1772222494.3259702,-27.0,144.0,-1427.0
1772222494.33397,-28.0,143.0,-1426.0
1772222494.3699758,-27.0,144.0,-1426.0
1772222494.3779757,-27.0,143.0,-1427.0
1772222494.3810651,-27.0,143.0,-1427.0
1772222494.389065,-27.0,144.0,-1428.0
1772222494.3823493,-27.0,145.0,-1428.0
1772222494.3903491,-27.0,145.0,-1429.0
1772222494.4196684,-26.0,145.0,-1428.0
1772222494.4276683,-27.0,145.0,-1429.0
1772222494.4421835,-26.0,145.0,-1428.0
1772222494.4501834,-26.0,145.0,-1426.0
1772222494.4442484,-26.0,146.0,-1427.0
1772222494.4522483,-26.0,145.0,-1428.0
1772222494.4459233,-26.0,145.0,-1430.0
1772222494.4539232,-26.0,144.0,-1429.0
1772222494.4479434,-26.0,145.0,-1428.0
1772222494.4559433,-26.0,144.0,-1430.0
1772222494.4495404,-27.0,144.0,-1431.0
1772222494.4575403,-26.0,145.0,-1429.0
1772222494.4511101,-26.0,145.0,-1427.0
1772222494.45911,-26.0,145.0,-1429.0
1772222494.453159,-26.0,145.0,-1428.0
1772222494.461159,-26.0,145.0,-1427.0
1772222494.4541807,-26.0,146.0,-1428.0
1772222494.4621806,-26.0,146.0,-1429.0
1772222494.455758,-25.0,146.0,-1428.0
1772222494.463758,-26.0,146.0,-1428.0
1772222494.4578211,-26.0,146.0,-1426.0
1772222494.465821,-27.0,145.0,-1427.0
1772222494.4594865,-27.0,144.0,-1427.0
1772222494.4674864,-26.0,145.0,-1425.0
1772222494.4619455,-25.0,146.0,-1425.0
1772222494.4699454,-25.0,146.0,-1429.0
1772222494.4649498,-26.0,145.0,-1429.0
1772222494.4729497,-26.0,145.0,-1431.0
1772222494.4696348,-25.0,145.0,-1429.0
1772222494.4776347,-25.0,145.0,-1430.0
1772222494.4708998,-25.0,145.0,-1428.0
1772222494.4788997,-25.0,146.0,-1428.0
1772222494.47337,-25.0,146.0,-1427.0
1772222494.48137,-24.0,146.0,-1425.0
1772222494.4754395,-23.0,147.0,-1425.0
1772222494.4834394,-24.0,147.0,-1426.0
1772222494.4784334,-24.0,148.0,-1425.0
1772222494.4864333,-24.0,148.0,-1426.0
1772222494.4831767,-24.0,147.0,-1430.0
1772222494.4911766,-25.0,146.0,-1432.0
1772222494.4964914,-24.0,146.0,-1431.0
1772222494.5044913,-24.0,146.0,-1431.0
1772222494.5288434,-25.0,146.0,-1433.0
1772222494.5368433,-25.0,145.0,-1432.0
1772222494.5540752,-25.0,146.0,-1433.0
1772222494.5620751,-25.0,146.0,-1431.0
1772222494.5566134,-25.0,146.0,-1433.0
1772222494.5646133,-25.0,146.0,-1431.0
1772222494.5773659,-25.0,146.0,-1433.0
1772222494.5853658,-25.0,146.0,-1434.0
1772222494.57937,-26.0,145.0,-1434.0
1772222494.58737,-26.0,145.0,-1433.0
1772222494.5809116,-25.0,145.0,-1433.0
1772222494.5889115,-25.0,145.0,-1433.0
1772222494.5827153,-26.0,145.0,-1430.0
1772222494.5907152,-26.0,145.0,-1430.0
1772222494.5843549,-26.0,144.0,-1431.0
1772222494.5923548,-27.0,145.0,-1427.0
1772222494.5847585,-26.0,145.0,-1429.0
1772222494.5927584,-26.0,145.0,-1433.0
1772222494.590533,-26.0,145.0,-1432.0
1772222494.598533,-25.0,145.0,-1430.0
1772222494.5930533,-25.0,146.0,-1429.0
1772222494.6010532,-25.0,146.0,-1430.0
1772222494.5950875,-24.0,146.0,-1431.0
1772222494.6030874,-24.0,146.0,-1430.0
1772222494.598321,-25.0,146.0,-1432.0
1772222494.6063209,-25.0,145.0,-1432.0
1772222494.6005063,-25.0,145.0,-1431.0
1772222494.6085062,-24.0,145.0,-1429.0
1772222494.603485,-24.0,145.0,-1428.0
1772222494.611485,-25.0,146.0,-1427.0
1772222494.6144795,-24.0,146.0,-1432.0
1772222494.6224794,-23.0,145.0,-1430.0
1772222494.6484785,-23.0,145.0,-1427.0
1772222494.6564784,-23.0,145.0,-1428.0
1772222494.6514816,-22.0,146.0,-1430.0
1772222494.6594815,-23.0,147.0,-1429.0
1772222494.6524806,-23.0,146.0,-1428.0
1772222494.6604805,-24.0,145.0,-1426.0
1772222494.6674793,-23.0,145.0,-1429.0
1772222494.6754792,-23.0,145.0,-1429.0
1772222494.7175162,-22.0,145.0,-1428.0
1772222494.725516,-22.0,146.0,-1428.0
1772222494.71894,-22.0,146.0,-1429.0
1772222494.72694,-23.0,145.0,-1427.0
1772222494.7206297,-23.0,145.0,-1427.0
1772222494.7286296,-23.0,145.0,-1425.0
1772222494.722237,-23.0,145.0,-1425.0
1772222494.730237,-23.0,145.0,-1431.0
1772222494.7241316,-22.0,145.0,-1430.0
1772222494.7321315,-21.0,145.0,-1429.0
1772222494.726183,-22.0,145.0,-1428.0
1772222494.7341828,-22.0,145.0,-1427.0
1772222494.7316642,-22.0,145.0,-1432.0
1772222494.739664,-22.0,145.0,-1434.0
1772222494.732686,-21.0,147.0,-1432.0
1772222494.740686,-20.0,147.0,-1433.0
1772222494.7352223,-20.0,147.0,-1433.0
1772222494.7432222,-21.0,147.0,-1435.0
1772222494.7387595,-21.0,146.0,-1434.0
1772222494.7467594,-21.0,145.0,-1435.0
1772222494.7418125,-20.0,145.0,-1434.0
1772222494.7498124,-20.0,147.0,-1433.0
1772222494.7871344,-19.0,147.0,-1432.0
1772222494.7951343,-20.0,147.0,-1433.0
1772222494.795713,-19.0,147.0,-1432.0
1772222494.8037128,-20.0,148.0,-1431.0
1772222494.8151662,-19.0,148.0,-1430.0
1772222494.8231661,-19.0,148.0,-1431.0
1772222494.836567,-19.0,148.0,-1430.0
1772222494.8445668,-19.0,148.0,-1429.0
1772222494.837885,-18.0,149.0,-1430.0
1772222494.8458848,-18.0,149.0,-1431.0
1772222494.8394303,-17.0,148.0,-1430.0
1772222494.8474302,-18.0,148.0,-1428.0
1772222494.8408678,-19.0,147.0,-1428.0
1772222494.8488677,-18.0,148.0,-1427.0
1772222494.8433692,-18.0,148.0,-1427.0
1772222494.8513691,-18.0,148.0,-1430.0
1772222494.8454409,-17.0,149.0,-1430.0
1772222494.8534408,-17.0,150.0,-1428.0
1772222494.849605,-17.0,150.0,-1425.0
1772222494.857605,-17.0,150.0,-1424.0
1772222494.8506253,-16.0,150.0,-1427.0
1772222494.8586252,-16.0,149.0,-1429.0
1772222494.8526604,-16.0,150.0,-1428.0
1772222494.8606603,-16.0,150.0,-1426.0
1772222494.8556619,-16.0,150.0,-1425.0
1772222494.8636618,-16.0,150.0,-1425.0
1772222494.8588223,-16.0,151.0,-1425.0
1772222494.8668222,-15.0,152.0,-1429.0
1772222494.863012,-15.0,153.0,-1430.0
1772222494.871012,-16.0,151.0,-1429.0
1772222494.8667126,-14.0,152.0,-1427.0
1772222494.8747125,-15.0,151.0,-1426.0
1772222494.8801608,-15.0,152.0,-1430.0
1772222494.8881607,-16.0,153.0,-1434.0
1772222494.8815444,-16.0,151.0,-1427.0
1772222494.8895442,-15.0,150.0,-1424.0
1772222494.9146092,-15.0,151.0,-1431.0
1772222494.922609,-15.0,151.0,-1433.0
1772222494.9394543,-15.0,151.0,-1429.0
1772222494.9474542,-15.0,152.0,-1425.0
1772222494.9419317,-16.0,152.0,-1427.0
1772222494.9499316,-16.0,152.0,-1431.0
1772222494.9501822,-16.0,151.0,-1425.0
1772222494.958182,-16.0,151.0,-1420.0
1772222494.9577956,-16.0,151.0,-1424.0
1772222494.9657955,-16.0,151.0,-1427.0
1772222494.9841237,-16.0,152.0,-1427.0
1772222494.9921236,-16.0,151.0,-1422.0
1772222494.9865441,-16.0,152.0,-1419.0
1772222494.994544,-15.0,152.0,-1422.0
1772222494.988406,-16.0,152.0,-1428.0
1772222494.9964058,-16.0,152.0,-1421.0
1772222494.989917,-15.0,151.0,-1423.0
1772222494.997917,-15.0,151.0,-1428.0
1772222494.991728,-15.0,152.0,-1428.0
1772222494.999728,-14.0,153.0,-1421.0
1772222494.9957771,-14.0,153.0,-1419.0
1772222495.003777,-14.0,153.0,-1423.0
1772222494.998262,-14.0,153.0,-1429.0
1772222495.0062618,-15.0,153.0,-1426.0
1772222495.0003076,-14.0,153.0,-1422.0
1772222495.0083075,-14.0,153.0,-1426.0
1772222495.0031714,-13.0,153.0,-1430.0
1772222495.0111713,-14.0,153.0,-1426.0
1772222495.0061786,-14.0,153.0,-1420.0
1772222495.0141785,-13.0,154.0,-1424.0
1772222495.0082128,-14.0,153.0,-1432.0
1772222495.0162127,-13.0,153.0,-1428.0
1772222495.0094469,-12.0,154.0,-1422.0
1772222495.0174468,-11.0,154.0,-1422.0
1772222495.012183,-10.0,155.0,-1429.0
1772222495.0201828,-10.0,155.0,-1429.0
1772222495.0132034,-10.0,155.0,-1425.0
1772222495.0212033,-10.0,156.0,-1431.0
1772222495.0282285,-9.0,156.0,-1438.0
1772222495.0362284,-9.0,156.0,-1440.0
1772222495.0712094,-10.0,156.0,-1436.0
1772222495.0792093,-10.0,157.0,-1434.0
1772222495.1005993,-9.0,157.0,-1439.0
1772222495.1085992,-9.0,156.0,-1442.0
1772222495.1163094,-10.0,156.0,-1434.0
1772222495.1243093,-10.0,156.0,-1433.0
1772222495.1180692,-9.0,156.0,-1439.0
1772222495.126069,-8.0,156.0,-1437.0
1772222495.1195247,-8.0,157.0,-1432.0
1772222495.1275246,-7.0,158.0,-1432.0
1772222495.1209288,-7.0,158.0,-1435.0
1772222495.1289287,-7.0,158.0,-1437.0
1772222495.1229722,-7.0,158.0,-1434.0
1772222495.1309721,-7.0,158.0,-1430.0
1772222495.1279483,-6.0,158.0,-1432.0
1772222495.1359482,-6.0,159.0,-1433.0
1772222495.128998,-5.0,159.0,-1429.0
1772222495.136998,-5.0,159.0,-1425.0
1772222495.1306233,-5.0,159.0,-1426.0
1772222495.1386232,-5.0,159.0,-1433.0
1772222495.135301,-5.0,159.0,-1431.0
1772222495.143301,-4.0,159.0,-1424.0
1772222495.151849,-3.0,160.0,-1424.0
1772222495.159849,-3.0,160.0,-1428.0
1772222495.1824837,-3.0,161.0,-1428.0
1772222495.1904836,-3.0,160.0,-1421.0
1772222495.191538,-2.0,161.0,-1421.0
1772222495.199538,-2.0,161.0,-1426.0
1772222495.1939423,-2.0,162.0,-1425.0
1772222495.2019422,-2.0,162.0,-1417.0
1772222495.2225404,-1.0,162.0,-1417.0
1772222495.2305403,0.0,163.0,-1420.0
1772222495.2479599,-1.0,162.0,-1420.0
1772222495.2559597,-1.0,162.0,-1418.0
1772222495.2495143,0.0,163.0,-1412.0
1772222495.2575142,-1.0,163.0,-1418.0
1772222495.2511444,-1.0,163.0,-1426.0
1772222495.2591443,-1.0,163.0,-1419.0
1772222495.2531781,0.0,164.0,-1416.0
1772222495.261178,0.0,163.0,-1421.0
1772222495.2574046,0.0,164.0,-1425.0
1772222495.2654045,0.0,164.0,-1423.0
1772222495.2595127,1.0,164.0,-1417.0
1772222495.2675126,0.0,165.0,-1420.0
1772222495.2615552,1.0,165.0,-1425.0
1772222495.269555,2.0,165.0,-1424.0
1772222495.2640626,2.0,166.0,-1420.0
1772222495.2720625,1.0,166.0,-1421.0
1772222495.2665021,1.0,165.0,-1426.0
1772222495.274502,0.0,163.0,-1425.0
1772222495.2685542,0.0,162.0,-1421.0
1772222495.276554,0.0,163.0,-1421.0
1772222495.2858284,0.0,163.0,-1427.0
1772222495.2938282,0.0,162.0,-1428.0
1772222495.3172195,1.0,163.0,-1422.0
1772222495.3252194,1.0,164.0,-1420.0
1772222495.3514507,1.0,164.0,-1426.0
1772222495.3594506,1.0,164.0,-1427.0
1772222495.3529851,0.0,163.0,-1421.0
1772222495.360985,0.0,163.0,-1420.0
1772222495.3550406,1.0,164.0,-1421.0
1772222495.3630404,1.0,164.0,-1427.0
1772222495.3563333,0.0,164.0,-1425.0
1772222495.3643332,0.0,163.0,-1419.0
1772222495.366524,-1.0,163.0,-1423.0
1772222495.3745239,0.0,163.0,-1427.0
1772222495.3885696,0.0,164.0,-1423.0
1772222495.3965695,0.0,163.0,-1418.0
1772222495.3903627,0.0,164.0,-1418.0
1772222495.3983626,1.0,164.0,-1422.0
1772222495.392271,1.0,164.0,-1422.0
1772222495.400271,1.0,164.0,-1417.0
1772222495.394331,1.0,164.0,-1417.0
1772222495.4023309,0.0,164.0,-1421.0
1772222495.3964243,1.0,165.0,-1422.0
1772222495.4044242,2.0,166.0,-1414.0
1772222495.3987515,4.0,166.0,-1413.0
1772222495.4067514,5.0,167.0,-1417.0
1772222495.4021075,7.0,170.0,-1418.0
1772222495.4101074,8.0,169.0,-1411.0
1772222495.4055734,11.0,171.0,-1407.0
1772222495.4135733,12.0,171.0,-1414.0
1772222495.4075956,15.0,173.0,-1416.0
1772222495.4155955,20.0,176.0,-1409.0
1772222495.4099276,22.0,180.0,-1406.0
1772222495.4179275,26.0,185.0,-1411.0
1772222495.4114947,33.0,189.0,-1413.0
1772222495.4194946,36.0,191.0,-1411.0
1772222495.4125464,40.0,196.0,-1408.0
1772222495.4205463,48.0,202.0,-1411.0
1772222495.4141853,58.0,208.0,-1415.0
1772222495.4221852,63.0,214.0,-1412.0
1772222495.4308667,67.0,217.0,-1413.0
1772222495.4388666,69.0,218.0,-1417.0
1772222495.4652085,72.0,218.0,-1420.0
1772222495.4732084,69.0,219.0,-1419.0
1772222495.4797564,69.0,220.0,-1415.0
1772222495.4877563,70.0,220.0,-1416.0
1772222495.516757,71.0,221.0,-1421.0
1772222495.524757,71.0,221.0,-1419.0
1772222495.5350995,70.0,220.0,-1419.0
1772222495.5430994,70.0,220.0,-1418.0
1772222495.5367503,69.0,219.0,-1423.0
1772222495.5447502,66.0,217.0,-1424.0
1772222495.538228,63.0,215.0,-1420.0
1772222495.546228,62.0,213.0,-1418.0
1772222495.539701,61.0,211.0,-1423.0
1772222495.547701,58.0,208.0,-1426.0
1772222495.5417616,57.0,206.0,-1422.0
1772222495.5497615,52.0,202.0,-1420.0
1772222495.5447638,49.0,201.0,-1427.0
1772222495.5527637,47.0,198.0,-1430.0
1772222495.5468647,43.0,194.0,-1427.0
1772222495.5548646,39.0,190.0,-1422.0
1772222495.5522017,37.0,187.0,-1425.0
1772222495.5602016,32.0,183.0,-1430.0
1772222495.5532274,28.0,180.0,-1427.0
1772222495.5612273,25.0,177.0,-1421.0
1772222495.55538,20.0,174.0,-1421.0
1772222495.56338,17.0,171.0,-1427.0
1772222495.5625107,15.0,169.0,-1424.0
1772222495.5705106,11.0,166.0,-1420.0
1772222495.6111042,8.0,163.0,-1420.0
1772222495.6191041,5.0,160.0,-1426.0
1772222495.6234572,0.0,156.0,-1425.0
1772222495.631457,-3.0,153.0,-1420.0
1772222495.6504548,-6.0,150.0,-1418.0
1772222495.6584547,-10.0,147.0,-1424.0
1772222495.6534019,-13.0,144.0,-1424.0
1772222495.6614017,-15.0,142.0,-1415.0
1772222495.7079983,-17.0,141.0,-1413.0
1772222495.7159982,-19.0,139.0,-1417.0
1772222495.709856,-21.0,136.0,-1420.0
1772222495.717856,-24.0,134.0,-1414.0
1772222495.711484,-25.0,133.0,-1411.0
1772222495.7194839,-26.0,132.0,-1415.0
1772222495.713069,-29.0,130.0,-1419.0
1772222495.7210689,-32.0,128.0,-1415.0
1772222495.7151284,-33.0,126.0,-1416.0
1772222495.7231283,-35.0,125.0,-1419.0
1772222495.7166557,-36.0,125.0,-1422.0
1772222495.7246556,-37.0,123.0,-1420.0
1772222495.7176983,-36.0,123.0,-1414.0
1772222495.7256982,-37.0,123.0,-1416.0
1772222495.7212405,-37.0,122.0,-1420.0
1772222495.7292404,-37.0,123.0,-1420.0
1772222495.7226102,-37.0,123.0,-1415.0
1772222495.7306101,-38.0,123.0,-1415.0
1772222495.725179,-38.0,124.0,-1422.0
1772222495.7331789,-38.0,123.0,-1422.0
1772222495.7286868,-39.0,123.0,-1416.0
1772222495.7366867,-39.0,123.0,-1416.0
1772222495.7306798,-39.0,123.0,-1423.0
1772222495.7386796,-39.0,122.0,-1422.0
1772222495.7331245,-39.0,122.0,-1417.0
1772222495.7411244,-39.0,123.0,-1415.0
1772222495.7371924,-39.0,123.0,-1419.0
1772222495.7451923,-38.0,124.0,-1422.0
1772222495.7407594,-38.0,124.0,-1419.0
1772222495.7487593,-38.0,124.0,-1418.0
1772222495.7827237,-38.0,125.0,-1421.0
1772222495.7907236,-38.0,123.0,-1423.0
1772222495.7999287,-38.0,123.0,-1419.0
1772222495.8079286,-38.0,123.0,-1417.0
1772222495.8092415,-39.0,123.0,-1420.0
1772222495.8172414,-39.0,124.0,-1426.0
1772222495.831135,-38.0,124.0,-1422.0
1772222495.839135,-38.0,125.0,-1417.0
1772222495.8327758,-38.0,125.0,-1420.0
1772222495.8407757,-38.0,124.0,-1425.0
1772222495.839475,-38.0,124.0,-1423.0
1772222495.8474748,-37.0,124.0,-1420.0
1772222495.8414361,-37.0,124.0,-1419.0
1772222495.849436,-37.0,124.0,-1424.0
1772222495.8436532,-37.0,125.0,-1424.0
1772222495.851653,-37.0,125.0,-1419.0
1772222495.8472118,-37.0,125.0,-1417.0
1772222495.8552117,-36.0,125.0,-1422.0
1772222495.8512805,-37.0,124.0,-1421.0
1772222495.8592803,-37.0,124.0,-1416.0
1772222495.8856518,-36.0,125.0,-1413.0
1772222495.8936517,-36.0,125.0,-1417.0
1772222495.91109,-36.0,125.0,-1419.0
1772222495.9190898,-36.0,125.0,-1412.0
1772222495.9397175,-36.0,126.0,-1412.0
1772222495.9477174,-35.0,125.0,-1414.0
1772222495.9411008,-35.0,125.0,-1414.0
1772222495.9491007,-35.0,126.0,-1415.0
1772222495.9427793,-35.0,126.0,-1414.0
1772222495.9507792,-35.0,126.0,-1413.0
1772222495.944683,-36.0,125.0,-1416.0
1772222495.952683,-35.0,125.0,-1416.0
1772222495.947818,-35.0,126.0,-1411.0
1772222495.955818,-35.0,126.0,-1412.0
1772222495.9510303,-36.0,125.0,-1416.0
1772222495.9590302,-37.0,125.0,-1415.0
1772222495.9534998,-36.0,125.0,-1411.0
1772222495.9614997,-35.0,125.0,-1410.0
1772222495.9555607,-35.0,126.0,-1415.0
1772222495.9635606,-35.0,125.0,-1415.0
1772222495.9709773,-35.0,125.0,-1412.0
1772222495.9789772,-36.0,125.0,-1410.0
1772222495.9729805,-35.0,126.0,-1416.0
1772222495.9809804,-35.0,126.0,-1418.0
1772222495.994515,-36.0,126.0,-1414.0
1772222496.0025148,-36.0,125.0,-1413.0
1772222495.996049,-37.0,124.0,-1417.0
1772222496.0040488,-37.0,124.0,-1419.0
1772222496.0047276,-36.0,125.0,-1418.0
1772222496.0127275,-36.0,125.0,-1416.0
1772222496.0229988,-37.0,125.0,-1418.0
1772222496.0309987,-37.0,125.0,-1423.0
1772222496.0600803,-36.0,125.0,-1418.0
1772222496.0680802,-36.0,124.0,-1416.0
1772222496.0625155,-36.0,125.0,-1418.0
1772222496.0705154,-37.0,124.0,-1424.0
1772222496.064311,-38.0,124.0,-1419.0
1772222496.072311,-37.0,124.0,-1418.0
1772222496.066359,-37.0,124.0,-1422.0
1772222496.074359,-38.0,123.0,-1425.0
1772222496.068371,-38.0,124.0,-1424.0
1772222496.076371,-37.0,124.0,-1417.0
1772222496.0698946,-37.0,124.0,-1418.0
1772222496.0778944,-37.0,124.0,-1423.0
1772222496.0719492,-37.0,124.0,-1422.0
1772222496.0799491,-37.0,124.0,-1417.0
1772222496.0771737,-37.0,124.0,-1418.0
1772222496.0851736,-40.0,124.0,-1421.0
1772222496.0791616,-38.0,125.0,-1422.0
1772222496.0871615,-31.0,130.0,-1417.0
1772222496.0828054,-26.0,133.0,-1415.0
1772222496.0908053,-22.0,136.0,-1418.0
1772222496.0855658,-18.0,139.0,-1418.0
1772222496.0935657,-13.0,142.0,-1419.0
1772222496.0886798,-9.0,146.0,-1414.0
1772222496.0966797,-5.0,149.0,-1416.0
1772222496.1026263,-1.0,153.0,-1417.0
1772222496.1106262,3.0,156.0,-1412.0
1772222496.1353989,7.0,159.0,-1412.0
1772222496.1433988,10.0,162.0,-1413.0
1772222496.137544,14.0,165.0,-1416.0
1772222496.1455438,19.0,169.0,-1414.0
1772222496.1595838,20.0,170.0,-1408.0
1772222496.1675837,20.0,170.0,-1409.0
1772222496.1907434,20.0,171.0,-1413.0
1772222496.1987433,20.0,171.0,-1410.0
1772222496.1924777,18.0,169.0,-1406.0
1772222496.2004776,17.0,169.0,-1407.0
1772222496.194158,16.0,168.0,-1412.0
1772222496.202158,14.0,167.0,-1412.0
1772222496.198299,12.0,167.0,-1408.0
1772222496.2062988,11.0,166.0,-1407.0
1772222496.1996686,9.0,165.0,-1411.0
1772222496.2076685,8.0,165.0,-1411.0
1772222496.2012677,7.0,163.0,-1408.0
1772222496.2092676,7.0,162.0,-1409.0
1772222496.2042644,6.0,161.0,-1411.0
1772222496.2122643,6.0,162.0,-1413.0
1772222496.205283,5.0,161.0,-1410.0
1772222496.2132828,4.0,161.0,-1407.0
1772222496.2072906,3.0,160.0,-1411.0
1772222496.2152905,2.0,159.0,-1414.0
1772222496.2082841,2.0,159.0,-1411.0
1772222496.216284,1.0,160.0,-1409.0
1772222496.21136,1.0,158.0,-1411.0
1772222496.2193599,2.0,159.0,-1418.0
1772222496.212672,1.0,159.0,-1416.0
1772222496.220672,1.0,158.0,-1411.0
1772222496.2157745,0.0,158.0,-1412.0
1772222496.2237744,0.0,158.0,-1417.0
1772222496.217239,-1.0,157.0,-1416.0
1772222496.2252388,0.0,157.0,-1411.0
1772222496.2182355,0.0,158.0,-1408.0
1772222496.2262354,0.0,157.0,-1411.0
1772222496.2224736,-1.0,156.0,-1412.0
1772222496.2304735,-2.0,156.0,-1409.0
1772222496.237706,-3.0,156.0,-1411.0
1772222496.2457058,-4.0,156.0,-1417.0
1772222496.2677417,-5.0,155.0,-1420.0
1772222496.2757416,-5.0,155.0,-1416.0
1772222496.283905,-5.0,154.0,-1412.0
1772222496.291905,-6.0,154.0,-1414.0
1772222496.314188,-6.0,153.0,-1417.0
1772222496.322188,-6.0,153.0,-1412.0
1772222496.316198,-7.0,153.0,-1409.0
1772222496.324198,-8.0,153.0,-1411.0
1772222496.3179579,-7.0,153.0,-1415.0
1772222496.3259578,-7.0,153.0,-1411.0
1772222496.319444,-7.0,152.0,-1405.0
1772222496.3274438,-7.0,153.0,-1410.0
1772222496.3238964,-7.0,152.0,-1411.0
1772222496.3318963,-7.0,152.0,-1410.0
1772222496.3267255,-8.0,152.0,-1405.0
1772222496.3347254,-8.0,152.0,-1406.0
1772222496.3303206,-9.0,152.0,-1409.0
1772222496.3383205,-8.0,153.0,-1407.0
1772222496.332355,-8.0,153.0,-1401.0
1772222496.340355,-8.0,153.0,-1401.0
1772222496.3337164,-7.0,153.0,-1407.0
1772222496.3417163,-7.0,153.0,-1408.0
1772222496.3794968,-7.0,153.0,-1405.0
1772222496.3874967,-7.0,152.0,-1404.0
1772222496.395932,-7.0,153.0,-1408.0
1772222496.4039319,-6.0,154.0,-1408.0
1772222496.3984609,-6.0,154.0,-1404.0
1772222496.4064608,-6.0,154.0,-1404.0
1772222496.4068813,-7.0,153.0,-1411.0
1772222496.4148812,-7.0,152.0,-1412.0
1772222496.4282932,-7.0,152.0,-1408.0
1772222496.4362931,-8.0,151.0,-1407.0
1772222496.430002,-9.0,151.0,-1410.0
1772222496.4380019,-9.0,151.0,-1413.0
1772222496.4317126,-9.0,151.0,-1409.0
1772222496.4397125,-9.0,151.0,-1404.0
1772222496.4352305,-10.0,151.0,-1411.0
1772222496.4432304,-10.0,150.0,-1417.0
1772222496.438277,-10.0,150.0,-1414.0
1772222496.446277,-10.0,150.0,-1410.0
1772222496.4407215,-10.0,149.0,-1412.0
1772222496.4487214,-10.0,149.0,-1417.0
1772222496.4442582,-9.0,149.0,-1417.0
1772222496.452258,-10.0,150.0,-1413.0
1772222496.4473028,-10.0,150.0,-1415.0
1772222496.4553027,-10.0,149.0,-1420.0
1772222496.4635406,-11.0,149.0,-1420.0
1772222496.4715405,-11.0,148.0,-1415.0
1772222496.4851508,-12.0,148.0,-1413.0
1772222496.4931507,-12.0,147.0,-1415.0
1772222496.498138,-12.0,147.0,-1416.0
1772222496.5061378,-11.0,148.0,-1413.0
1772222496.523927,-11.0,148.0,-1407.0
1772222496.5319269,-11.0,148.0,-1410.0
1772222496.5352142,-13.0,147.0,-1412.0
1772222496.543214,-12.0,147.0,-1409.0
1772222496.53724,-11.0,148.0,-1407.0
1772222496.54524,-12.0,147.0,-1412.0
1772222496.5644696,-13.0,147.0,-1415.0
1772222496.5724695,-13.0,147.0,-1409.0
1772222496.5661166,-12.0,147.0,-1403.0
1772222496.5741165,-12.0,148.0,-1406.0
1772222496.5676608,-12.0,148.0,-1413.0
1772222496.5756607,-13.0,147.0,-1410.0
1772222496.5697153,-13.0,146.0,-1409.0
1772222496.5777152,-13.0,147.0,-1408.0
1772222496.571885,-13.0,147.0,-1411.0
1772222496.579885,-13.0,147.0,-1412.0
1772222496.577134,-13.0,147.0,-1407.0
1772222496.5851338,-13.0,146.0,-1405.0
1772222496.5801914,-13.0,147.0,-1405.0
1772222496.5881913,-14.0,147.0,-1409.0
1772222496.5836444,-13.0,147.0,-1408.0
1772222496.5916443,-13.0,147.0,-1405.0
1772222496.622713,-13.0,148.0,-1399.0
1772222496.630713,-14.0,147.0,-1409.0
1772222496.6242445,-14.0,147.0,-1404.0
1772222496.6322443,-14.0,147.0,-1400.0
1772222496.6252656,-13.0,148.0,-1396.0
1772222496.6332655,-13.0,148.0,-1399.0
1772222496.6561708,-13.0,148.0,-1401.0
1772222496.6641707,-14.0,149.0,-1398.0
1772222496.6581779,-14.0,149.0,-1395.0
1772222496.6661777,-13.0,149.0,-1401.0
1772222496.682617,-13.0,149.0,-1405.0
1772222496.6906168,-13.0,149.0,-1400.0
1772222496.684211,-13.0,150.0,-1393.0
1772222496.692211,-13.0,150.0,-1397.0
1772222496.6859996,-13.0,149.0,-1398.0
1772222496.6939995,-14.0,149.0,-1396.0
1772222496.6878672,-14.0,150.0,-1391.0
1772222496.695867,-14.0,150.0,-1395.0
1772222496.6888921,-13.0,150.0,-1400.0
1772222496.696892,-14.0,149.0,-1396.0
1772222496.6910646,-14.0,150.0,-1390.0
1772222496.6990645,-14.0,150.0,-1389.0
1772222496.6946435,-14.0,150.0,-1392.0
1772222496.7026434,-15.0,149.0,-1392.0
1772222496.6976795,-14.0,150.0,-1388.0
1772222496.7056794,-14.0,150.0,-1388.0
1772222496.6999762,-14.0,150.0,-1394.0
1772222496.707976,-14.0,151.0,-1394.0
1772222496.704869,-14.0,151.0,-1389.0
1772222496.712869,-14.0,150.0,-1389.0
1772222496.7114403,-15.0,150.0,-1397.0
1772222496.7194402,-15.0,150.0,-1400.0
1772222496.7604644,-15.0,150.0,-1397.0
1772222496.7684643,-15.0,150.0,-1397.0
1772222496.7860076,-15.0,150.0,-1404.0
1772222496.7940075,-15.0,150.0,-1409.0
1772222496.7920537,-15.0,150.0,-1406.0
1772222496.8000536,-15.0,149.0,-1406.0
1772222496.8124077,-15.0,150.0,-1408.0
1772222496.8204076,-15.0,150.0,-1413.0
1772222496.8142178,-14.0,150.0,-1410.0
1772222496.8222177,-14.0,151.0,-1405.0
1772222496.8157313,-13.0,151.0,-1407.0
1772222496.8237312,-12.0,152.0,-1409.0
1772222496.8195314,-14.0,151.0,-1405.0
1772222496.8275313,-13.0,152.0,-1405.0
1772222496.8226216,-13.0,151.0,-1403.0
1772222496.8306215,-14.0,152.0,-1404.0
1772222496.8236172,-14.0,152.0,-1409.0
1772222496.831617,-14.0,151.0,-1409.0
1772222496.8286948,-14.0,151.0,-1410.0
1772222496.8366947,-15.0,151.0,-1412.0
1772222496.8318043,-14.0,151.0,-1411.0
1772222496.8398042,-15.0,150.0,-1407.0
1772222496.8511953,-15.0,150.0,-1406.0
1772222496.8591952,-15.0,149.0,-1409.0
1772222496.8831565,-15.0,149.0,-1410.0
1772222496.8911564,-14.0,150.0,-1407.0
1772222496.9062054,-14.0,151.0,-1406.0
1772222496.9142053,-14.0,151.0,-1408.0
1772222496.9072244,-13.0,152.0,-1407.0
1772222496.9152243,-14.0,152.0,-1404.0
1772222496.9543703,-13.0,151.0,-1403.0
1772222496.9623702,-15.0,149.0,-1403.0
1772222496.9563196,-15.0,151.0,-1404.0
1772222496.9643195,-15.0,151.0,-1402.0
1772222496.9579191,-15.0,152.0,-1402.0
1772222496.965919,-15.0,152.0,-1400.0
1772222496.9594326,-14.0,152.0,-1401.0
1772222496.9674325,-14.0,151.0,-1401.0
1772222496.962781,-13.0,151.0,-1401.0
1772222496.9707808,-13.0,152.0,-1403.0
1772222496.965066,-12.0,153.0,-1404.0
1772222496.9730659,-13.0,152.0,-1407.0
1772222496.9671412,-14.0,152.0,-1404.0
1772222496.975141,-14.0,152.0,-1405.0
1772222496.9681332,-13.0,152.0,-1403.0
1772222496.976133,-13.0,152.0,-1402.0
1772222496.9701424,-13.0,152.0,-1404.0
1772222496.9781423,-13.0,152.0,-1400.0
1772222496.9725063,-13.0,153.0,-1400.0
1772222496.9805062,-13.0,152.0,-1399.0
1772222496.974575,-13.0,152.0,-1397.0
1772222496.982575,-13.0,153.0,-1397.0
1772222496.9787395,-12.0,153.0,-1394.0
1772222496.9867394,-11.0,153.0,-1396.0
1772222496.979743,-13.0,153.0,-1395.0
1772222496.987743,-13.0,152.0,-1392.0
1772222496.983229,-13.0,153.0,-1393.0
1772222496.9912288,-13.0,152.0,-1393.0
1772222496.9848335,-13.0,152.0,-1391.0
1772222496.9928334,-13.0,151.0,-1391.0
1772222496.9868963,-14.0,151.0,-1391.0
1772222496.9948962,-14.0,152.0,-1390.0
1772222496.9904785,-13.0,152.0,-1391.0
1772222496.9984784,-13.0,152.0,-1389.0
1772222497.0344784,-13.0,152.0,-1388.0
1772222497.0424783,-13.0,152.0,-1388.0
1772222497.066594,-14.0,151.0,-1389.0
1772222497.0745938,-14.0,151.0,-1385.0
1772222497.093536,-14.0,151.0,-1384.0
1772222497.1015358,-14.0,150.0,-1380.0
1772222497.0955276,-15.0,150.0,-1383.0
1772222497.1035275,-14.0,151.0,-1380.0
1772222497.0975318,-13.0,151.0,-1378.0
1772222497.1055317,-13.0,152.0,-1380.0
1772222497.0985322,-14.0,151.0,-1377.0
1772222497.106532,-14.0,151.0,-1375.0
1772222497.1009345,-14.0,151.0,-1377.0
1772222497.1089344,-14.0,151.0,-1382.0
1772222497.1030052,-15.0,151.0,-1382.0
1772222497.111005,-14.0,151.0,-1380.0
1772222497.1045563,-15.0,151.0,-1381.0
1772222497.1125562,-14.0,150.0,-1386.0
1772222497.106611,-15.0,150.0,-1388.0
1772222497.114611,-15.0,150.0,-1385.0
1772222497.1092186,-15.0,149.0,-1385.0
1772222497.1172185,-15.0,150.0,-1388.0
1772222497.1109161,-14.0,151.0,-1390.0
1772222497.118916,-14.0,151.0,-1386.0
1772222497.1129286,-14.0,151.0,-1384.0
1772222497.1209285,-14.0,150.0,-1388.0
1772222497.1147172,-14.0,151.0,-1390.0
1772222497.1227171,-14.0,150.0,-1386.0
1772222497.1167908,-14.0,151.0,-1385.0
1772222497.1247907,-13.0,151.0,-1388.0
1772222497.118311,-14.0,151.0,-1390.0
1772222497.1263108,-13.0,152.0,-1387.0
1772222497.12021,-13.0,152.0,-1387.0
1772222497.1282098,-14.0,152.0,-1385.0
1772222497.122273,-13.0,152.0,-1386.0
1772222497.1302729,-14.0,151.0,-1392.0
1772222497.123881,-14.0,151.0,-1391.0
1772222497.131881,-13.0,151.0,-1390.0
1772222497.1259124,-13.0,151.0,-1395.0
1772222497.1339123,-13.0,152.0,-1396.0
1772222497.12734,-13.0,151.0,-1393.0
1772222497.13534,-13.0,152.0,-1392.0
1772222497.1293104,-13.0,152.0,-1395.0
1772222497.1373103,-14.0,151.0,-1395.0
1772222497.1313934,-14.0,151.0,-1394.0
1772222497.1393933,-14.0,151.0,-1394.0
1772222497.1329412,-14.0,152.0,-1397.0
1772222497.1409411,-14.0,151.0,-1396.0
1772222497.1343856,-13.0,151.0,-1393.0
1772222497.1423855,-14.0,151.0,-1391.0
1772222497.1364498,-13.0,151.0,-1392.0
1772222497.1444497,-13.0,152.0,-1395.0
1772222497.138722,-13.0,152.0,-1394.0
1772222497.1467218,-13.0,152.0,-1392.0
1772222497.1404374,-12.0,152.0,-1393.0
1772222497.1484373,-13.0,152.0,-1397.0
1772222497.142168,-13.0,152.0,-1398.0
1772222497.150168,-13.0,152.0,-1395.0
1772222497.143505,-13.0,152.0,-1394.0
1772222497.151505,-12.0,152.0,-1399.0
1772222497.145611,-12.0,152.0,-1400.0
1772222497.153611,-13.0,152.0,-1397.0
1772222497.1476965,-12.0,153.0,-1395.0
1772222497.1556964,-12.0,152.0,-1398.0
1772222497.1492715,-12.0,152.0,-1399.0
1772222497.1572714,-12.0,153.0,-1395.0
1772222497.1512067,-13.0,152.0,-1393.0
1772222497.1592066,-13.0,152.0,-1398.0
1772222497.152778,-13.0,152.0,-1397.0
1772222497.1607778,-13.0,152.0,-1396.0
1772222497.1548526,-12.0,152.0,-1395.0
1772222497.1628525,-12.0,153.0,-1393.0
1772222497.156428,-12.0,152.0,-1397.0
1772222497.164428,-13.0,152.0,-1394.0
1772222497.1579912,-13.0,152.0,-1396.0
1772222497.165991,-13.0,151.0,-1396.0
1772222497.1595352,-14.0,151.0,-1398.0
1772222497.167535,-14.0,150.0,-1396.0
1772222497.1622612,-14.0,151.0,-1395.0
1772222497.1702611,-14.0,151.0,-1395.0
1772222497.1659975,-14.0,151.0,-1397.0
1772222497.1739974,-14.0,151.0,-1396.0
1772222497.1680052,-14.0,151.0,-1396.0
1772222497.1760051,-13.0,151.0,-1395.0
1772222497.1702023,-14.0,151.0,-1395.0
1772222497.1782022,-13.0,151.0,-1396.0
1772222497.1732864,-13.0,151.0,-1393.0
1772222497.1812863,-13.0,151.0,-1391.0
1772222497.1748629,-12.0,152.0,-1391.0
1772222497.1828628,-12.0,152.0,-1392.0
1772222497.17652,-12.0,152.0,-1394.0
1772222497.18452,-12.0,152.0,-1394.0
1772222497.1782374,-13.0,152.0,-1398.0
1772222497.1862373,-14.0,151.0,-1399.0
1772222497.1798172,-14.0,151.0,-1398.0
1772222497.187817,-14.0,152.0,-1399.0
1772222497.1813776,-14.0,151.0,-1403.0
1772222497.1893775,-14.0,151.0,-1404.0
1772222497.1844435,-14.0,152.0,-1402.0
1772222497.1924434,-14.0,151.0,-1400.0
1772222497.1892967,-14.0,151.0,-1401.0
1772222497.1972966,-14.0,150.0,-1402.0
1772222497.1981702,-14.0,151.0,-1398.0
1772222497.20617,-14.0,151.0,-1399.0
1772222497.2001803,-14.0,151.0,-1400.0
1772222497.2081802,-13.0,151.0,-1400.0
1772222497.2101684,-13.0,152.0,-1401.0
1772222497.2181683,-13.0,152.0,-1401.0
1772222497.2364767,-13.0,152.0,-1399.0
1772222497.2444766,-13.0,152.0,-1399.0
1772222497.2385485,-13.0,151.0,-1398.0
1772222497.2465484,-14.0,152.0,-1397.0
1772222497.252537,-13.0,151.0,-1396.0
1772222497.260537,-14.0,151.0,-1396.0
1772222497.2930746,-14.0,151.0,-1396.0
1772222497.3010745,-14.0,151.0,-1396.0
1772222497.3000884,-14.0,151.0,-1396.0
1772222497.3080883,-14.0,151.0,-1397.0
1772222497.3292239,-14.0,150.0,-1397.0
1772222497.3372238,-14.0,151.0,-1394.0
1772222497.3312838,-15.0,151.0,-1395.0
1772222497.3392837,-15.0,150.0,-1395.0
1772222497.332975,-15.0,150.0,-1396.0
1772222497.3409748,-15.0,150.0,-1396.0
1772222497.3343644,-14.0,150.0,-1393.0
1772222497.3423643,-15.0,150.0,-1394.0
1772222497.3359315,-15.0,150.0,-1395.0
1772222497.3439314,-15.0,150.0,-1395.0
1772222497.3385923,-14.0,150.0,-1392.0
1772222497.3465922,-15.0,150.0,-1395.0
1772222497.3417335,-15.0,150.0,-1397.0
1772222497.3497334,-16.0,148.0,-1396.0
1772222497.3463323,-15.0,149.0,-1393.0
1772222497.3543322,-15.0,149.0,-1394.0
1772222497.3493555,-16.0,149.0,-1396.0
1772222497.3573554,-15.0,149.0,-1395.0
1772222497.351988,-15.0,149.0,-1397.0
1772222497.359988,-15.0,150.0,-1395.0
1772222497.3535483,-15.0,150.0,-1396.0
1772222497.3615482,-15.0,150.0,-1397.0
1772222497.3576293,-15.0,150.0,-1396.0
1772222497.3656292,-16.0,150.0,-1396.0
1772222497.3705823,-15.0,150.0,-1396.0
1772222497.3785822,-15.0,149.0,-1398.0
1772222497.4034536,-15.0,150.0,-1396.0
1772222497.4114535,-14.0,151.0,-1395.0
1772222497.4215624,-15.0,150.0,-1396.0
1772222497.4295623,-14.0,151.0,-1397.0
1772222497.4555082,-13.0,151.0,-1395.0
1772222497.4635081,-14.0,151.0,-1396.0
1772222497.4575436,-13.0,151.0,-1397.0
1772222497.4655435,-14.0,151.0,-1398.0
1772222497.4591892,-14.0,151.0,-1395.0
1772222497.467189,-13.0,151.0,-1394.0
1772222497.4632282,-13.0,152.0,-1396.0
1772222497.4712281,-13.0,152.0,-1397.0
1772222497.4669285,-13.0,152.0,-1398.0
1772222497.4749284,-13.0,152.0,-1398.0
1772222497.4679167,-13.0,151.0,-1395.0
1772222497.4759166,-14.0,151.0,-1395.0
1772222497.4711943,-13.0,152.0,-1396.0
1772222497.4791942,-12.0,152.0,-1396.0
1772222497.4734237,-12.0,152.0,-1396.0
1772222497.4814236,-13.0,152.0,-1395.0
1772222497.4757023,-13.0,152.0,-1397.0
1772222497.4837022,-13.0,152.0,-1395.0
1772222497.4789784,-12.0,152.0,-1396.0
1772222497.4869783,-12.0,152.0,-1394.0
1772222497.4800174,-12.0,153.0,-1395.0
1772222497.4880173,-11.0,153.0,-1395.0
1772222497.4820178,-11.0,154.0,-1393.0
1772222497.4900177,-12.0,153.0,-1394.0
1772222497.498053,-11.0,154.0,-1395.0
1772222497.506053,-11.0,153.0,-1395.0
1772222497.5212798,-11.0,153.0,-1393.0
1772222497.5292797,-10.0,155.0,-1394.0
1772222497.5353417,-10.0,156.0,-1396.0
1772222497.5433416,-10.0,157.0,-1398.0
1772222497.554751,-10.0,154.0,-1396.0
1772222497.5627508,-11.0,153.0,-1396.0
1772222497.5653424,-11.0,153.0,-1399.0
1772222497.5733423,-10.0,152.0,-1399.0
1772222497.5886877,-10.0,153.0,-1399.0
1772222497.5966876,-10.0,153.0,-1398.0
1772222497.5903869,-11.0,152.0,-1400.0
1772222497.5983868,-11.0,152.0,-1398.0
1772222497.59193,-11.0,151.0,-1397.0
1772222497.5999298,-11.0,152.0,-1398.0
1772222497.5959332,-11.0,152.0,-1398.0
1772222497.603933,-11.0,151.0,-1399.0
1772222497.5985782,-11.0,150.0,-1398.0
1772222497.606578,-11.0,151.0,-1398.0
1772222497.6010044,-11.0,151.0,-1398.0
1772222497.6090043,-11.0,151.0,-1398.0
1772222497.6032524,-11.0,152.0,-1398.0
1772222497.6112523,-12.0,152.0,-1398.0
1772222497.606325,-12.0,152.0,-1398.0
1772222497.6143248,-12.0,151.0,-1397.0
1772222497.6088607,-12.0,151.0,-1398.0
1772222497.6168606,-11.0,151.0,-1398.0
1772222497.6260817,-11.0,152.0,-1398.0
1772222497.6340816,-11.0,153.0,-1399.0
1772222497.6563156,-11.0,151.0,-1399.0
1772222497.6643155,-12.0,152.0,-1400.0
1772222497.6790073,-12.0,152.0,-1401.0
1772222497.6870072,-12.0,152.0,-1401.0
1772222497.6996741,-12.0,151.0,-1399.0
1772222497.707674,-12.0,151.0,-1398.0
1772222497.7011838,-12.0,152.0,-1400.0
1772222497.7091837,-11.0,152.0,-1402.0
1772222497.702834,-12.0,152.0,-1401.0
1772222497.7108338,-12.0,151.0,-1401.0
1772222497.7043445,-12.0,151.0,-1400.0
1772222497.7123444,-13.0,151.0,-1401.0
1772222497.7058194,-13.0,150.0,-1401.0
1772222497.7138193,-13.0,150.0,-1400.0
1772222497.7072647,-13.0,150.0,-1400.0
1772222497.7152646,-14.0,149.0,-1397.0
1772222497.7090993,-13.0,150.0,-1398.0
1772222497.7170992,-14.0,149.0,-1398.0
1772222497.7139108,-14.0,149.0,-1398.0
1772222497.7219107,-14.0,149.0,-1398.0
1772222497.716583,-15.0,149.0,-1399.0
1772222497.724583,-15.0,149.0,-1401.0
1772222497.7199025,-14.0,149.0,-1402.0
1772222497.7279024,-14.0,149.0,-1401.0
1772222497.7544997,-14.0,149.0,-1400.0
1772222497.7624996,-13.0,149.0,-1399.0
1772222497.7682943,-12.0,150.0,-1396.0
1772222497.7762942,-11.0,151.0,-1397.0
1772222497.7897048,-11.0,151.0,-1396.0
1772222497.7977047,-12.0,151.0,-1396.0
1772222497.7992656,-12.0,151.0,-1396.0
1772222497.8072655,-12.0,151.0,-1399.0
1772222497.8222392,-13.0,150.0,-1402.0
1772222497.830239,-13.0,149.0,-1401.0
1772222497.8243623,-13.0,150.0,-1401.0
1772222497.8323622,-13.0,150.0,-1401.0
1772222497.8260171,-13.0,149.0,-1402.0
1772222497.834017,-14.0,149.0,-1397.0
1772222497.8316932,-13.0,149.0,-1397.0
1772222497.839693,-13.0,150.0,-1398.0
1772222497.8327243,-13.0,150.0,-1398.0
1772222497.8407242,-13.0,150.0,-1398.0
1772222497.8337233,-12.0,150.0,-1397.0
1772222497.8417232,-12.0,150.0,-1398.0
1772222497.836037,-12.0,150.0,-1398.0
1772222497.8440368,-12.0,151.0,-1398.0
1772222497.838468,-11.0,152.0,-1395.0
1772222497.846468,-12.0,151.0,-1394.0
1772222497.8400483,-11.0,151.0,-1392.0
1772222497.8480482,-11.0,151.0,-1391.0
1772222497.841524,-11.0,152.0,-1393.0
1772222497.8495238,-13.0,149.0,-1394.0
1772222497.8430777,-14.0,148.0,-1393.0
1772222497.8510776,-16.0,147.0,-1394.0
1772222497.846532,-17.0,145.0,-1396.0
1772222497.854532,-17.0,144.0,-1394.0
1772222497.8495948,-18.0,143.0,-1393.0
1772222497.8575947,-20.0,141.0,-1393.0
1772222497.8781934,-20.0,141.0,-1394.0
1772222497.8861933,-21.0,140.0,-1393.0
1772222497.886217,-22.0,140.0,-1393.0
1772222497.894217,-23.0,138.0,-1393.0
1772222497.8998127,-24.0,138.0,-1393.0
1772222497.9078126,-24.0,138.0,-1392.0
1772222497.902222,-24.0,138.0,-1392.0
1772222497.9102218,-24.0,138.0,-1392.0
1772222497.9099712,-24.0,139.0,-1393.0
1772222497.9179711,-24.0,139.0,-1394.0
1772222497.9289749,-23.0,139.0,-1393.0
1772222497.9369748,-24.0,139.0,-1395.0
1772222497.9305787,-23.0,140.0,-1393.0
1772222497.9385786,-23.0,141.0,-1394.0
1772222497.9320896,-24.0,141.0,-1395.0
1772222497.9400895,-23.0,141.0,-1396.0
1772222497.935512,-23.0,140.0,-1397.0
1772222497.943512,-23.0,141.0,-1396.0
1772222497.9378805,-22.0,141.0,-1397.0
1772222497.9458804,-23.0,140.0,-1397.0
1772222497.9399314,-22.0,141.0,-1398.0
1772222497.9479313,-22.0,142.0,-1399.0
1772222497.943578,-21.0,142.0,-1399.0
1772222497.951578,-21.0,142.0,-1398.0
1772222497.9456084,-21.0,141.0,-1399.0
1772222497.9536083,-21.0,142.0,-1399.0
1772222497.9625432,-21.0,142.0,-1397.0
1772222497.9705431,-21.0,142.0,-1399.0
1772222498.008421,-21.0,142.0,-1399.0
1772222498.0164208,-21.0,142.0,-1396.0
1772222498.0209064,-20.0,143.0,-1397.0
1772222498.0289063,-19.0,143.0,-1397.0
1772222498.0521767,-20.0,143.0,-1391.0
1772222498.0601766,-20.0,143.0,-1382.0
1772222498.0537906,-20.0,143.0,-1379.0
1772222498.0617905,-20.0,143.0,-1382.0
1772222498.0557706,-19.0,143.0,-1385.0
1772222498.0637705,-18.0,144.0,-1389.0
1772222498.0593054,-18.0,145.0,-1389.0
1772222498.0673053,-18.0,145.0,-1390.0
1772222498.0642865,-18.0,144.0,-1392.0
1772222498.0722864,-18.0,144.0,-1393.0
1772222498.0663116,-18.0,144.0,-1391.0
1772222498.0743115,-18.0,144.0,-1391.0
1772222498.0686252,-18.0,144.0,-1392.0
1772222498.076625,-18.0,144.0,-1393.0
1772222498.0717583,-18.0,144.0,-1391.0
1772222498.0797582,-17.0,144.0,-1394.0
1772222498.0727787,-17.0,144.0,-1395.0
1772222498.0807786,-16.0,145.0,-1395.0
1772222498.074809,-16.0,145.0,-1397.0
1772222498.082809,-16.0,145.0,-1395.0
1772222498.0794342,-16.0,145.0,-1394.0
1772222498.087434,-16.0,145.0,-1395.0
1772222498.1151168,-16.0,145.0,-1397.0
1772222498.1231167,-16.0,146.0,-1396.0
1772222498.1257029,-16.0,144.0,-1396.0
1772222498.1337028,-18.0,142.0,-1396.0
1772222498.1728764,-19.0,141.0,-1395.0
1772222498.1808763,-21.0,138.0,-1394.0
1772222498.1744332,-22.0,136.0,-1396.0
1772222498.1824331,-24.0,136.0,-1397.0
1772222498.1759067,-26.0,134.0,-1397.0
1772222498.1839066,-27.0,133.0,-1396.0
1772222498.1775107,-28.0,132.0,-1396.0
1772222498.1855106,-29.0,131.0,-1394.0
1772222498.18197,-29.0,130.0,-1395.0
1772222498.1899698,-28.0,130.0,-1396.0
1772222498.18403,-29.0,131.0,-1395.0
1772222498.19203,-28.0,131.0,-1395.0
1772222498.1878064,-28.0,131.0,-1396.0
1772222498.1958063,-27.0,131.0,-1394.0
1772222498.2037487,-27.0,131.0,-1393.0
1772222498.2117486,-27.0,132.0,-1397.0
1772222498.2289784,-27.0,131.0,-1396.0
1772222498.2369783,-27.0,132.0,-1395.0
1772222498.2443752,-26.0,133.0,-1395.0
1772222498.2523751,-26.0,134.0,-1397.0
1772222498.2652445,-25.0,134.0,-1396.0
1772222498.2732444,-25.0,134.0,-1395.0
1772222498.2671971,-25.0,134.0,-1396.0
1772222498.275197,-24.0,135.0,-1397.0
1772222498.2682204,-25.0,134.0,-1396.0
1772222498.2762203,-25.0,135.0,-1395.0
1772222498.301758,-24.0,135.0,-1392.0
1772222498.309758,-24.0,135.0,-1393.0
1772222498.3033354,-24.0,135.0,-1395.0
1772222498.3113353,-24.0,134.0,-1396.0
1772222498.3048851,-23.0,135.0,-1395.0
1772222498.312885,-22.0,136.0,-1395.0
1772222498.3064866,-22.0,137.0,-1394.0
1772222498.3144865,-22.0,136.0,-1393.0
1772222498.3105714,-22.0,135.0,-1392.0
1772222498.3185713,-22.0,137.0,-1393.0
1772222498.3133514,-21.0,137.0,-1394.0
1772222498.3213513,-21.0,137.0,-1395.0
1772222498.3159752,-21.0,138.0,-1396.0
1772222498.323975,-22.0,138.0,-1394.0
1772222498.3190794,-21.0,138.0,-1394.0
1772222498.3270793,-21.0,138.0,-1394.0
1772222498.3229299,-20.0,138.0,-1395.0
1772222498.3309298,-20.0,137.0,-1395.0
1772222498.363534,-20.0,139.0,-1396.0
1772222498.3715339,-20.0,137.0,-1396.0
1772222498.3780751,-21.0,137.0,-1397.0
1772222498.386075,-21.0,137.0,-1396.0
1772222498.3799906,-21.0,137.0,-1396.0
1772222498.3879905,-21.0,137.0,-1395.0
1772222498.4027767,-21.0,137.0,-1393.0
1772222498.4107766,-20.0,136.0,-1393.0
1772222498.4178112,-20.0,136.0,-1393.0
1772222498.425811,-22.0,136.0,-1395.0
1772222498.4467402,-21.0,137.0,-1396.0
1772222498.45474,-20.0,136.0,-1392.0
1772222498.4487867,-21.0,137.0,-1391.0
1772222498.4567866,-21.0,137.0,-1392.0
1772222498.4502478,-20.0,137.0,-1391.0
1772222498.4582477,-20.0,137.0,-1390.0
1772222498.4545672,-19.0,137.0,-1391.0
1772222498.462567,-19.0,138.0,-1391.0
1772222498.4576375,-19.0,140.0,-1391.0
1772222498.4656374,-19.0,139.0,-1391.0
1772222498.4586782,-19.0,138.0,-1394.0
1772222498.4666781,-19.0,138.0,-1395.0
1772222498.4617078,-21.0,137.0,-1396.0
1772222498.4697077,-20.0,138.0,-1398.0
1772222498.4656727,-20.0,137.0,-1398.0
1772222498.4736726,-21.0,138.0,-1395.0
1772222498.5039062,-21.0,137.0,-1394.0
1772222498.5119061,-22.0,135.0,-1398.0
1772222498.5143187,-23.0,135.0,-1397.0
1772222498.5223186,-23.0,135.0,-1394.0
1772222498.532811,-23.0,134.0,-1393.0
1772222498.5408108,-24.0,133.0,-1396.0
1772222498.5418153,-23.0,134.0,-1396.0
1772222498.5498152,-23.0,134.0,-1396.0
1772222498.563709,-23.0,134.0,-1396.0
1772222498.571709,-24.0,134.0,-1395.0
1772222498.5655935,-23.0,134.0,-1394.0
1772222498.5735934,-23.0,134.0,-1394.0
1772222498.5670152,-23.0,135.0,-1395.0
1772222498.575015,-23.0,134.0,-1394.0
1772222498.5714946,-23.0,134.0,-1393.0
1772222498.5794945,-23.0,134.0,-1391.0
1772222498.5736275,-23.0,134.0,-1394.0
1772222498.5816274,-23.0,134.0,-1395.0
1772222498.575116,-23.0,134.0,-1393.0
1772222498.5831158,-23.0,134.0,-1392.0
1772222498.5781963,-23.0,134.0,-1392.0
1772222498.5861962,-22.0,135.0,-1394.0
1772222498.5803967,-22.0,135.0,-1394.0
1772222498.5883965,-22.0,135.0,-1394.0
1772222498.582792,-22.0,136.0,-1394.0
1772222498.590792,-22.0,135.0,-1394.0
1772222498.5985107,-23.0,135.0,-1394.0
1772222498.6065106,-23.0,135.0,-1392.0
1772222498.625579,-22.0,134.0,-1397.0
1772222498.633579,-23.0,134.0,-1395.0
1772222498.6369226,-23.0,135.0,-1393.0
1772222498.6449225,-22.0,135.0,-1394.0
1772222498.655779,-22.0,135.0,-1393.0
1772222498.6637788,-23.0,135.0,-1393.0
1772222498.6643136,-22.0,135.0,-1394.0
1772222498.6723135,-22.0,135.0,-1392.0
1772222498.684454,-22.0,135.0,-1391.0
1772222498.6924539,-22.0,135.0,-1391.0
1772222498.6859977,-21.0,136.0,-1392.0
1772222498.6939976,-22.0,135.0,-1392.0
1772222498.6875885,-23.0,136.0,-1393.0
1772222498.6955884,-23.0,136.0,-1392.0
1772222498.6890533,-22.0,136.0,-1394.0
1772222498.6970532,-22.0,135.0,-1392.0
1772222498.6905437,-21.0,135.0,-1392.0
1772222498.6985435,-21.0,136.0,-1394.0
1772222498.6961694,-22.0,135.0,-1394.0
1772222498.7041693,-21.0,136.0,-1394.0
1772222498.6990175,-21.0,137.0,-1395.0
1772222498.7070174,-20.0,137.0,-1395.0
1772222498.7020454,-22.0,138.0,-1395.0
1772222498.7100453,-21.0,137.0,-1394.0
1772222498.7041214,-20.0,137.0,-1394.0
1772222498.7121212,-21.0,137.0,-1394.0
1772222498.7083044,-21.0,136.0,-1393.0
1772222498.7163043,-21.0,136.0,-1391.0
1772222498.7092733,-20.0,137.0,-1393.0
1772222498.7172732,-21.0,137.0,-1394.0
1772222498.7243063,-21.0,137.0,-1393.0
1772222498.7323062,-21.0,137.0,-1393.0
1772222498.752897,-21.0,137.0,-1392.0
1772222498.760897,-20.0,138.0,-1391.0
1772222498.7690246,-20.0,138.0,-1393.0
1772222498.7770245,-21.0,138.0,-1393.0
1772222498.8005838,-20.0,138.0,-1393.0
1772222498.8085837,-21.0,138.0,-1392.0
1772222498.8015969,-20.0,138.0,-1391.0
1772222498.8095968,-20.0,138.0,-1390.0
1772222498.8037126,-20.0,138.0,-1394.0
1772222498.8117125,-18.0,138.0,-1394.0
1772222498.8052082,-20.0,139.0,-1393.0
1772222498.813208,-20.0,139.0,-1393.0
1772222498.8063416,-20.0,138.0,-1391.0
1772222498.8143415,-20.0,139.0,-1391.0
1772222498.8079195,-21.0,138.0,-1390.0
1772222498.8159194,-21.0,138.0,-1393.0
1772222498.811647,-20.0,139.0,-1392.0
1772222498.8196468,-20.0,139.0,-1391.0
1772222498.8140485,-20.0,138.0,-1391.0
1772222498.8220484,-19.0,139.0,-1393.0
1772222498.8166394,-20.0,138.0,-1392.0
1772222498.8246393,-20.0,138.0,-1391.0
1772222498.819427,-20.0,139.0,-1390.0
1772222498.827427,-20.0,138.0,-1390.0
1772222498.8224874,-20.0,139.0,-1388.0
1772222498.8304873,-20.0,139.0,-1390.0
1772222498.8403516,-19.0,139.0,-1392.0
1772222498.8483515,-20.0,139.0,-1392.0
1772222498.8836098,-21.0,138.0,-1391.0
1772222498.8916097,-20.0,139.0,-1390.0
1772222498.8858643,-20.0,138.0,-1392.0
1772222498.8938642,-21.0,138.0,-1393.0
1772222498.893455,-22.0,137.0,-1393.0
1772222498.901455,-21.0,137.0,-1393.0
1772222498.9120827,-21.0,137.0,-1392.0
1772222498.9200826,-21.0,138.0,-1392.0
1772222498.9135435,-21.0,138.0,-1394.0
1772222498.9215434,-21.0,137.0,-1393.0
1772222498.9153278,-21.0,137.0,-1393.0
1772222498.9233277,-21.0,138.0,-1393.0
1772222498.916594,-21.0,138.0,-1394.0
1772222498.924594,-21.0,137.0,-1391.0
1772222498.9205325,-21.0,138.0,-1392.0
1772222498.9285324,-20.0,138.0,-1392.0
1772222498.9232984,-20.0,138.0,-1392.0
1772222498.9312983,-22.0,138.0,-1391.0
1772222498.9257433,-21.0,138.0,-1389.0
1772222498.9337432,-20.0,138.0,-1389.0
1772222498.9284868,-20.0,138.0,-1391.0
1772222498.9364867,-20.0,139.0,-1391.0
1772222498.931141,-20.0,139.0,-1392.0
1772222498.9391408,-20.0,139.0,-1392.0
1772222498.9735913,-19.0,139.0,-1393.0
1772222498.9815912,-19.0,139.0,-1392.0
1772222498.9846556,-20.0,138.0,-1390.0
1772222498.9926555,-19.0,139.0,-1392.0
1772222499.000435,-20.0,140.0,-1390.0
1772222499.008435,-21.0,139.0,-1391.0
1772222499.002198,-20.0,139.0,-1391.0
1772222499.0101979,-21.0,139.0,-1392.0
1772222499.027753,-20.0,139.0,-1391.0
1772222499.035753,-19.0,139.0,-1390.0
1772222499.0290916,-19.0,138.0,-1391.0
1772222499.0370915,-19.0,139.0,-1393.0
1772222499.0311553,-20.0,139.0,-1393.0
1772222499.0391552,-20.0,139.0,-1392.0
1772222499.0326514,-20.0,140.0,-1392.0
1772222499.0406513,-20.0,138.0,-1392.0
1772222499.0378196,-20.0,138.0,-1391.0
1772222499.0458195,-21.0,138.0,-1391.0
1772222499.0408714,-21.0,139.0,-1390.0
1772222499.0488713,-21.0,139.0,-1389.0
1772222499.0433455,-21.0,139.0,-1392.0
1772222499.0513453,-21.0,138.0,-1392.0
1772222499.044884,-21.0,139.0,-1390.0
1772222499.0528839,-21.0,138.0,-1389.0
1772222499.0799525,-22.0,138.0,-1387.0
1772222499.0879524,-22.0,137.0,-1392.0
1772222499.1025221,-21.0,138.0,-1391.0
1772222499.110522,-21.0,138.0,-1388.0
1772222499.1283674,-21.0,139.0,-1388.0
1772222499.1363673,-21.0,138.0,-1390.0
1772222499.1301832,-20.0,139.0,-1388.0
1772222499.138183,-20.0,140.0,-1385.0
1772222499.1326904,-20.0,140.0,-1388.0
1772222499.1406903,-20.0,140.0,-1389.0
1772222499.13545,-20.0,139.0,-1390.0
1772222499.1434498,-21.0,138.0,-1392.0
1772222499.1383123,-21.0,139.0,-1392.0
1772222499.1463122,-21.0,139.0,-1393.0
1772222499.1423116,-21.0,139.0,-1397.0
1772222499.1503115,-21.0,139.0,-1397.0
1772222499.1443589,-20.0,139.0,-1395.0
1772222499.1523588,-20.0,140.0,-1394.0
1772222499.1755748,-20.0,140.0,-1394.0
1772222499.1835747,-21.0,139.0,-1393.0
1772222499.1946077,-20.0,139.0,-1393.0
1772222499.2026076,-20.0,138.0,-1393.0
1772222499.2205398,-20.0,139.0,-1393.0
1772222499.2285397,-22.0,139.0,-1393.0
1772222499.2220697,-21.0,139.0,-1392.0
1772222499.2300696,-21.0,139.0,-1391.0
1772222499.2231715,-21.0,140.0,-1391.0
1772222499.2311714,-21.0,139.0,-1393.0
1772222499.2274492,-21.0,138.0,-1389.0
1772222499.235449,-21.0,139.0,-1387.0
1772222499.2298079,-20.0,139.0,-1392.0
1772222499.2378078,-20.0,139.0,-1393.0
1772222499.2313063,-20.0,139.0,-1391.0
1772222499.2393062,-21.0,140.0,-1391.0
1772222499.2333508,-21.0,140.0,-1388.0
1772222499.2413507,-21.0,140.0,-1392.0
1772222499.2367566,-20.0,139.0,-1391.0
1772222499.2447565,-21.0,139.0,-1389.0
1772222499.2387779,-21.0,139.0,-1391.0
1772222499.2467778,-21.0,140.0,-1390.0
1772222499.2397857,-20.0,140.0,-1391.0
1772222499.2477856,-21.0,140.0,-1392.0
1772222499.2424896,-18.0,142.0,-1391.0
1772222499.2504895,-15.0,143.0,-1392.0
1772222499.2465384,-12.0,146.0,-1390.0
1772222499.2545383,-10.0,148.0,-1389.0
1772222499.2575374,-8.0,149.0,-1391.0
1772222499.2655373,-7.0,150.0,-1391.0
1772222499.2775357,-4.0,154.0,-1389.0
1772222499.2855356,-2.0,154.0,-1387.0
1772222499.279221,-2.0,154.0,-1390.0
1772222499.287221,-1.0,155.0,-1392.0
1772222499.2882285,-3.0,154.0,-1391.0
1772222499.2962284,-4.0,154.0,-1390.0
1772222499.313366,-4.0,154.0,-1393.0
1772222499.3213658,-5.0,154.0,-1392.0
1772222499.3153534,-6.0,153.0,-1392.0
1772222499.3233533,-7.0,153.0,-1392.0
1772222499.3342853,-6.0,153.0,-1391.0
1772222499.3422852,-8.0,152.0,-1393.0
1772222499.3360312,-8.0,152.0,-1393.0
1772222499.344031,-8.0,153.0,-1392.0
1772222499.3378775,-8.0,152.0,-1392.0
1772222499.3458774,-8.0,153.0,-1392.0
1772222499.342268,-8.0,153.0,-1392.0
1772222499.350268,-9.0,153.0,-1391.0
1772222499.344566,-9.0,151.0,-1391.0
1772222499.352566,-9.0,152.0,-1392.0
1772222499.3471713,-11.0,151.0,-1392.0
1772222499.3551712,-10.0,151.0,-1390.0
1772222499.3492408,-10.0,152.0,-1388.0
1772222499.3572407,-12.0,151.0,-1393.0
1772222499.3518224,-12.0,151.0,-1392.0
1772222499.3598223,-11.0,150.0,-1391.0
1772222499.3564916,-13.0,149.0,-1391.0
1772222499.3644915,-12.0,149.0,-1391.0
1772222499.3694718,-12.0,150.0,-1393.0
1772222499.3774717,-12.0,150.0,-1390.0
1772222499.4108028,-13.0,149.0,-1391.0
1772222499.4188027,-11.0,150.0,-1392.0
1772222499.4373426,-12.0,150.0,-1391.0
1772222499.4453425,-13.0,149.0,-1390.0
1772222499.4389641,-13.0,149.0,-1390.0
1772222499.446964,-12.0,150.0,-1391.0
1772222499.440641,-13.0,150.0,-1389.0
1772222499.4486408,-12.0,149.0,-1390.0
1772222499.4427295,-12.0,150.0,-1391.0
1772222499.4507294,-11.0,150.0,-1391.0
1772222499.4457939,-12.0,151.0,-1391.0
1772222499.4537938,-13.0,150.0,-1392.0
1772222499.4491725,-11.0,151.0,-1391.0
1772222499.4571724,-10.0,153.0,-1390.0
1772222499.4500852,-11.0,153.0,-1389.0
1772222499.458085,-10.0,152.0,-1391.0
1772222499.4539073,-7.0,153.0,-1392.0
1772222499.4619071,-5.0,155.0,-1391.0
1772222499.455242,-3.0,158.0,-1391.0
1772222499.4632418,-1.0,158.0,-1391.0
1772222499.4582996,-1.0,157.0,-1390.0
1772222499.4662995,0.0,160.0,-1393.0
1772222499.459296,1.0,161.0,-1392.0
1772222499.467296,0.0,159.0,-1390.0
1772222499.475935,-1.0,159.0,-1390.0
1772222499.4839349,-2.0,160.0,-1390.0
1772222499.513935,-3.0,157.0,-1390.0
1772222499.521935,-2.0,157.0,-1389.0
1772222499.5219288,-2.0,157.0,-1390.0
1772222499.5299287,-4.0,158.0,-1389.0
1772222499.5420775,-3.0,158.0,-1390.0
1772222499.5500774,-3.0,157.0,-1390.0
1772222499.5438483,-5.0,156.0,-1390.0
1772222499.5518482,-5.0,156.0,-1392.0
1772222499.5452106,-6.0,156.0,-1390.0
1772222499.5532105,-6.0,156.0,-1390.0
1772222499.5467548,-4.0,157.0,-1390.0
1772222499.5547547,-5.0,157.0,-1391.0
1772222499.5487092,-5.0,157.0,-1392.0
1772222499.556709,-5.0,156.0,-1392.0
1772222499.5517335,-6.0,156.0,-1392.0
1772222499.5597334,-5.0,156.0,-1392.0
1772222499.554328,-4.0,156.0,-1391.0
1772222499.5623279,-5.0,156.0,-1392.0
1772222499.558295,-5.0,156.0,-1390.0
1772222499.566295,-5.0,155.0,-1390.0
1772222499.5604272,-5.0,156.0,-1390.0
1772222499.568427,-5.0,156.0,-1390.0
1772222499.5754106,-5.0,156.0,-1388.0
1772222499.5834105,-5.0,156.0,-1390.0
1772222499.6038861,-5.0,156.0,-1391.0
1772222499.611886,-6.0,157.0,-1389.0
1772222499.6193101,-6.0,157.0,-1389.0
1772222499.62731,-5.0,157.0,-1390.0
1772222499.6293118,-5.0,157.0,-1389.0
1772222499.6373117,-6.0,155.0,-1390.0
1772222499.6478362,-7.0,155.0,-1391.0
1772222499.655836,-6.0,154.0,-1390.0
1772222499.6495874,-6.0,155.0,-1390.0
1772222499.6575873,-7.0,155.0,-1390.0
1772222499.6510818,-7.0,155.0,-1388.0
1772222499.6590817,-6.0,155.0,-1388.0
1772222499.6531255,-7.0,154.0,-1390.0
1772222499.6611254,-6.0,154.0,-1391.0
1772222499.6561263,-7.0,154.0,-1390.0
1772222499.6641262,-8.0,154.0,-1392.0
1772222499.6592515,-7.0,154.0,-1391.0
1772222499.6672513,-7.0,155.0,-1390.0
1772222499.6617355,-7.0,155.0,-1390.0
1772222499.6697354,-8.0,155.0,-1389.0
1772222499.665065,-8.0,154.0,-1387.0
1772222499.673065,-8.0,153.0,-1387.0
1772222499.667146,-9.0,152.0,-1389.0
1772222499.6751459,-8.0,153.0,-1389.0
1772222499.6686862,-8.0,154.0,-1389.0
1772222499.676686,-9.0,154.0,-1388.0
1772222499.6851497,-8.0,153.0,-1387.0
1772222499.6931496,-7.0,154.0,-1388.0
1772222499.708655,-8.0,154.0,-1387.0
1772222499.716655,-9.0,153.0,-1385.0
1772222499.7301326,-8.0,154.0,-1383.0
1772222499.7381325,-8.0,154.0,-1385.0
1772222499.7386363,-8.0,153.0,-1385.0
1772222499.7466362,-8.0,154.0,-1386.0
1772222499.7585545,-8.0,154.0,-1388.0
1772222499.7665544,-9.0,154.0,-1390.0
1772222499.7601383,-9.0,153.0,-1391.0
1772222499.7681382,-10.0,152.0,-1391.0
1772222499.7617128,-10.0,152.0,-1391.0
1772222499.7697127,-11.0,152.0,-1391.0
1772222499.7631714,-10.0,152.0,-1391.0
1772222499.7711713,-9.0,153.0,-1390.0
1772222499.764673,-11.0,153.0,-1390.0
1772222499.772673,-11.0,152.0,-1391.0
1772222499.7692418,-9.0,152.0,-1390.0
1772222499.7772417,-9.0,154.0,-1389.0
1772222499.771786,-8.0,154.0,-1387.0
1772222499.7797859,-8.0,153.0,-1389.0
1772222499.7723255,-8.0,154.0,-1391.0
1772222499.7803254,-8.0,153.0,-1390.0
1772222499.7753549,-8.0,153.0,-1390.0
1772222499.7833548,-8.0,153.0,-1389.0
1772222499.7775345,-7.0,153.0,-1389.0
1772222499.7855344,-8.0,152.0,-1389.0
1772222499.7797716,-9.0,153.0,-1388.0
1772222499.7877715,-9.0,153.0,-1388.0
1772222499.8314552,-9.0,152.0,-1384.0
1772222499.8394551,-8.0,153.0,-1389.0
1772222499.8771367,-8.0,153.0,-1388.0
1772222499.8851366,-9.0,152.0,-1387.0
1772222499.8788364,-9.0,153.0,-1391.0
1772222499.8868363,-8.0,154.0,-1388.0
1772222499.8806078,-8.0,152.0,-1388.0
1772222499.8886077,-10.0,151.0,-1388.0
1772222499.8821723,-9.0,152.0,-1391.0
1772222499.8901722,-11.0,152.0,-1388.0
1772222499.883694,-9.0,153.0,-1387.0
1772222499.8916938,-10.0,153.0,-1390.0
1772222499.8857362,-10.0,152.0,-1387.0
1772222499.8937361,-10.0,152.0,-1387.0
1772222499.8897443,-10.0,152.0,-1387.0
1772222499.8977442,-10.0,151.0,-1386.0
1772222499.8926432,-9.0,151.0,-1386.0
1772222499.900643,-10.0,152.0,-1387.0
1772222499.89616,-10.0,152.0,-1388.0
1772222499.9041598,-10.0,152.0,-1389.0
1772222499.9131143,-11.0,152.0,-1389.0
1772222499.9211142,-9.0,153.0,-1387.0
1772222499.9593353,-9.0,153.0,-1386.0
1772222499.9673352,-11.0,153.0,-1388.0
1772222499.9617445,-11.0,152.0,-1387.0
1772222499.9697444,-9.0,152.0,-1387.0
1772222499.9869823,-10.0,153.0,-1388.0
1772222499.9949822,-10.0,153.0,-1387.0
1772222499.9885216,-10.0,153.0,-1388.0
1772222499.9965215,-10.0,152.0,-1386.0
1772222499.9901707,-9.0,152.0,-1386.0
1772222499.9981706,-9.0,152.0,-1389.0
1772222499.9956725,-10.0,152.0,-1390.0
1772222500.0036724,-10.0,153.0,-1389.0
1772222499.9988794,-9.0,153.0,-1388.0
1772222500.0068793,-9.0,153.0,-1388.0
1772222500.0010326,-10.0,153.0,-1386.0
1772222500.0090325,-11.0,152.0,-1386.0
1772222500.0357418,-11.0,152.0,-1387.0
1772222500.0437417,-9.0,152.0,-1385.0
1772222500.0596654,-10.0,152.0,-1385.0
1772222500.0676653,-9.0,153.0,-1386.0
1772222500.0617669,-8.0,155.0,-1386.0
1772222500.0697668,-10.0,154.0,-1385.0
1772222500.0638232,-8.0,154.0,-1387.0
1772222500.0718231,-8.0,155.0,-1387.0
1772222500.093724,-8.0,155.0,-1385.0
1772222500.101724,-5.0,157.0,-1386.0
1772222500.0957255,-4.0,156.0,-1387.0
1772222500.1037254,-4.0,156.0,-1386.0
1772222500.0972722,-4.0,159.0,-1385.0
1772222500.105272,-4.0,158.0,-1383.0
1772222500.0989344,-4.0,158.0,-1384.0
1772222500.1069343,-5.0,158.0,-1383.0
1772222500.1031277,-5.0,157.0,-1385.0
1772222500.1111276,-5.0,157.0,-1386.0
1772222500.105244,-5.0,158.0,-1385.0
1772222500.1132438,-6.0,157.0,-1383.0
1772222500.107314,-6.0,158.0,-1384.0
1772222500.115314,-6.0,158.0,-1383.0
1772222500.1103115,-6.0,157.0,-1384.0
1772222500.1183114,-6.0,157.0,-1383.0
1772222500.1129594,-7.0,156.0,-1381.0
1772222500.1209593,-7.0,157.0,-1382.0
1772222500.127322,-6.0,158.0,-1383.0
1772222500.1353219,-7.0,157.0,-1383.0
1772222500.1290548,-7.0,157.0,-1384.0
1772222500.1370547,-7.0,156.0,-1383.0
1772222500.1581008,-6.0,156.0,-1383.0
1772222500.1661007,-7.0,156.0,-1385.0
1772222500.1967523,-8.0,156.0,-1384.0
1772222500.2047522,-6.0,157.0,-1384.0
1772222500.1985495,-6.0,157.0,-1384.0
1772222500.2065494,-7.0,156.0,-1383.0
1772222500.200205,-6.0,156.0,-1385.0
1772222500.208205,-7.0,158.0,-1383.0
1772222500.2033718,-7.0,156.0,-1382.0
1772222500.2113717,-8.0,157.0,-1385.0
1772222500.206395,-6.0,157.0,-1384.0
1772222500.2143948,-7.0,157.0,-1383.0
1772222500.2091877,-7.0,156.0,-1384.0
1772222500.2171876,-7.0,157.0,-1382.0
1772222500.2123814,-7.0,157.0,-1381.0
1772222500.2203813,-6.0,156.0,-1384.0
1772222500.21697,-7.0,157.0,-1380.0
1772222500.2249699,-6.0,158.0,-1383.0
1772222500.2481196,-6.0,157.0,-1383.0
1772222500.2561195,-6.0,158.0,-1382.0
1772222500.2501938,-6.0,158.0,-1383.0
1772222500.2581937,-5.0,158.0,-1383.0
1772222500.2511883,-5.0,159.0,-1383.0
1772222500.2591882,-5.0,159.0,-1381.0
1772222500.2611969,-5.0,159.0,-1381.0
1772222500.2691967,-6.0,158.0,-1381.0
1772222500.283977,-5.0,158.0,-1382.0
1772222500.291977,-6.0,158.0,-1382.0
1772222500.2857053,-6.0,158.0,-1384.0
1772222500.2937052,-5.0,158.0,-1382.0
1772222500.3047578,-6.0,158.0,-1383.0
1772222500.3127577,-5.0,158.0,-1382.0
1772222500.306274,-6.0,158.0,-1382.0
1772222500.3142738,-6.0,159.0,-1382.0
1772222500.3077905,-6.0,158.0,-1381.0
1772222500.3157904,-6.0,158.0,-1383.0
1772222500.3098328,-5.0,159.0,-1384.0
1772222500.3178327,-6.0,158.0,-1384.0
1772222500.313284,-6.0,159.0,-1382.0
1772222500.3212838,-7.0,158.0,-1382.0
1772222500.315773,-6.0,158.0,-1385.0
1772222500.323773,-6.0,158.0,-1382.0
1772222500.3182151,-7.0,158.0,-1381.0
1772222500.326215,-7.0,158.0,-1382.0
1772222500.3202593,-7.0,158.0,-1380.0
1772222500.3282592,-5.0,158.0,-1381.0
1772222500.3232677,-6.0,158.0,-1380.0
1772222500.3312676,-5.0,158.0,-1378.0
1772222500.3272626,-4.0,160.0,-1379.0
1772222500.3352625,-5.0,160.0,-1377.0
1772222500.344613,-5.0,161.0,-1378.0
1772222500.352613,-6.0,159.0,-1382.0
1772222500.37417,-5.0,159.0,-1383.0
1772222500.38217,-6.0,160.0,-1383.0
1772222500.39036,-6.0,158.0,-1384.0
1772222500.39836,-6.0,158.0,-1384.0
1772222500.4280832,-6.0,157.0,-1384.0
1772222500.436083,-8.0,156.0,-1381.0
1772222500.4300444,-6.0,158.0,-1382.0
1772222500.4380443,-7.0,159.0,-1382.0
1772222500.4316323,-7.0,159.0,-1384.0
1772222500.4396322,-6.0,158.0,-1382.0
1772222500.4332006,-6.0,158.0,-1381.0
1772222500.4412005,-6.0,157.0,-1380.0
1772222500.4372444,-7.0,159.0,-1381.0
1772222500.4452443,-6.0,159.0,-1382.0
1772222500.4397793,-7.0,159.0,-1384.0
1772222500.4477792,-7.0,158.0,-1382.0
1772222500.4423413,-7.0,158.0,-1381.0
1772222500.4503412,-7.0,158.0,-1381.0
1772222500.4459438,-6.0,159.0,-1379.0
1772222500.4539437,-7.0,158.0,-1379.0
1772222500.4469748,-7.0,158.0,-1379.0
1772222500.4549747,-7.0,158.0,-1382.0
1772222500.449313,-7.0,158.0,-1380.0
1772222500.4573128,-5.0,159.0,-1379.0
1772222500.486713,-6.0,159.0,-1380.0
1772222500.4947128,-7.0,158.0,-1380.0
1772222500.5079079,-7.0,158.0,-1378.0
1772222500.5159078,-7.0,158.0,-1376.0
1772222500.5401003,-7.0,159.0,-1379.0
1772222500.5481002,-7.0,158.0,-1380.0
1772222500.5420036,-7.0,158.0,-1379.0
1772222500.5500035,-6.0,159.0,-1378.0
1772222500.543022,-5.0,159.0,-1379.0
1772222500.5510218,-7.0,157.0,-1379.0
1772222500.5448062,-6.0,159.0,-1381.0
1772222500.5528061,-7.0,158.0,-1380.0
1772222500.5506454,-7.0,159.0,-1380.0
1772222500.5586452,-6.0,158.0,-1378.0
1772222500.5516863,-6.0,159.0,-1379.0
1772222500.5596862,-6.0,160.0,-1381.0
1772222500.554229,-6.0,159.0,-1380.0
1772222500.562229,-6.0,159.0,-1380.0
1772222500.557296,-6.0,158.0,-1380.0
1772222500.565296,-6.0,159.0,-1379.0
1772222500.5952978,-6.0,159.0,-1379.0
1772222500.6032977,-6.0,159.0,-1379.0
1772222500.6373773,-7.0,159.0,-1379.0
1772222500.6453772,-6.0,159.0,-1378.0
1772222500.659152,-5.0,159.0,-1376.0
1772222500.667152,-6.0,159.0,-1378.0
1772222500.6612172,-6.0,159.0,-1378.0
1772222500.669217,-6.0,159.0,-1379.0
1772222500.6628559,-6.0,159.0,-1378.0
1772222500.6708558,-6.0,160.0,-1379.0
1772222500.6643386,-6.0,160.0,-1379.0
1772222500.6723385,-6.0,159.0,-1380.0
1772222500.6661103,-6.0,160.0,-1380.0
1772222500.6741102,-6.0,160.0,-1379.0
1772222500.6685333,-6.0,160.0,-1379.0
1772222500.6765332,-5.0,160.0,-1377.0
1772222500.6729681,-5.0,159.0,-1380.0
1772222500.680968,-6.0,161.0,-1379.0
1772222500.6765265,-6.0,160.0,-1380.0
1772222500.6845264,-7.0,159.0,-1378.0
1772222500.6775475,-5.0,160.0,-1378.0
1772222500.6855474,-5.0,160.0,-1377.0
1772222500.6795871,-5.0,161.0,-1378.0
1772222500.687587,-5.0,160.0,-1378.0
1772222500.682272,-5.0,161.0,-1379.0
1772222500.6902719,-6.0,160.0,-1377.0
1772222500.6833134,-6.0,160.0,-1378.0
1772222500.6913133,-6.0,160.0,-1377.0
1772222500.6995444,-6.0,160.0,-1377.0
1772222500.7075443,-5.0,161.0,-1377.0
1772222500.7226083,-4.0,161.0,-1377.0
1772222500.7306082,-6.0,161.0,-1377.0
1772222500.7246099,-5.0,160.0,-1374.0
1772222500.7326097,-5.0,160.0,-1373.0
1772222500.7346323,-5.0,161.0,-1377.0
1772222500.7426322,-6.0,161.0,-1378.0
1772222500.7524064,-5.0,160.0,-1377.0
1772222500.7604063,-5.0,160.0,-1376.0
1772222500.7544248,-5.0,160.0,-1378.0
1772222500.7624247,-6.0,159.0,-1376.0
1772222500.7867692,-6.0,159.0,-1375.0
1772222500.794769,-6.0,159.0,-1376.0
1772222500.788358,-6.0,160.0,-1376.0
1772222500.7963579,-6.0,159.0,-1378.0
1772222500.7902312,-6.0,159.0,-1379.0
1772222500.7982311,-6.0,159.0,-1378.0
1772222500.7917786,-6.0,159.0,-1377.0
1772222500.7997785,-7.0,159.0,-1377.0
1772222500.7934136,-6.0,159.0,-1380.0
1772222500.8014135,-6.0,159.0,-1378.0
1772222500.795137,-6.0,159.0,-1378.0
1772222500.8031368,-6.0,159.0,-1377.0
1772222500.797364,-6.0,158.0,-1377.0
1772222500.805364,-7.0,159.0,-1375.0
1772222500.7985137,-7.0,159.0,-1375.0
1772222500.8065135,-7.0,158.0,-1377.0
1772222500.8005486,-6.0,158.0,-1376.0
1772222500.8085485,-7.0,159.0,-1376.0
1772222500.8022103,-6.0,159.0,-1375.0
1772222500.8102102,-6.0,159.0,-1376.0
1772222500.8038595,-7.0,159.0,-1377.0
1772222500.8118594,-6.0,159.0,-1377.0
1772222500.8054223,-6.0,159.0,-1376.0
1772222500.8134222,-6.0,159.0,-1377.0
1772222500.8074682,-6.0,160.0,-1375.0
1772222500.815468,-6.0,160.0,-1376.0
1772222500.8089736,-6.0,159.0,-1379.0
1772222500.8169734,-7.0,158.0,-1379.0
1772222500.811009,-6.0,159.0,-1378.0
1772222500.8190088,-6.0,159.0,-1378.0
1772222500.816634,-6.0,159.0,-1377.0
1772222500.8246338,-6.0,159.0,-1378.0
1772222500.8186045,-6.0,160.0,-1378.0
1772222500.8266044,-6.0,160.0,-1379.0
1772222500.8203816,-5.0,160.0,-1376.0
1772222500.8283815,-6.0,159.0,-1375.0
1772222500.8220603,-5.0,160.0,-1377.0
1772222500.8300602,-5.0,160.0,-1378.0
1772222500.8245473,-6.0,159.0,-1377.0
1772222500.8325472,-6.0,159.0,-1377.0
1772222500.8286126,-5.0,159.0,-1378.0
1772222500.8366125,-5.0,160.0,-1378.0
1772222500.8342042,-5.0,160.0,-1377.0
1772222500.842204,-4.0,160.0,-1377.0
1772222500.8360658,-5.0,160.0,-1377.0
1772222500.8440657,-6.0,160.0,-1374.0
1772222500.8404317,-5.0,161.0,-1378.0
1772222500.8484316,-5.0,160.0,-1376.0
1772222500.8430376,-6.0,158.0,-1377.0
1772222500.8510375,-5.0,159.0,-1377.0
1772222500.8453019,-5.0,159.0,-1377.0
1772222500.8533018,-5.0,159.0,-1377.0
1772222500.8483431,-6.0,158.0,-1376.0
1772222500.856343,-4.0,159.0,-1376.0
1772222500.9328947,-4.0,159.0,-1375.0
1772222500.9408946,-4.0,159.0,-1374.0
1772222500.934898,-5.0,159.0,-1372.0
1772222500.9428978,-4.0,159.0,-1372.0
1772222500.9730012,-3.0,160.0,-1372.0
1772222500.9810011,-3.0,160.0,-1372.0
1772222500.9746234,-4.0,160.0,-1371.0
1772222500.9826233,-4.0,160.0,-1373.0
1772222500.9762206,-4.0,159.0,-1372.0
1772222500.9842205,-5.0,159.0,-1377.0
1772222500.9781826,-5.0,158.0,-1380.0
1772222500.9861825,-5.0,158.0,-1380.0
1772222500.9802077,-5.0,158.0,-1380.0
1772222500.9882076,-6.0,158.0,-1378.0
1772222500.9817407,-6.0,157.0,-1377.0
1772222500.9897406,-7.0,156.0,-1376.0
1772222500.9830687,-7.0,157.0,-1377.0
1772222500.9910686,-8.0,156.0,-1377.0
1772222500.984619,-8.0,156.0,-1377.0
1772222500.9926188,-8.0,157.0,-1377.0
1772222500.9866579,-7.0,157.0,-1377.0
1772222500.9946578,-7.0,157.0,-1376.0
1772222500.9882843,-7.0,156.0,-1375.0
1772222500.9962842,-7.0,156.0,-1375.0
1772222500.9899297,-7.0,157.0,-1379.0
1772222500.9979296,-7.0,156.0,-1376.0
1772222500.9914937,-6.0,157.0,-1376.0
1772222500.9994936,-6.0,157.0,-1378.0
1772222500.9935293,-7.0,157.0,-1377.0
1772222501.0015292,-6.0,157.0,-1377.0
1772222500.995033,-7.0,157.0,-1377.0
1772222501.003033,-6.0,157.0,-1375.0
1772222500.9966486,-6.0,158.0,-1375.0
1772222501.0046484,-7.0,158.0,-1378.0
1772222501.0013666,-6.0,159.0,-1375.0
1772222501.0093665,-6.0,158.0,-1376.0
1772222501.0023909,-6.0,159.0,-1377.0
1772222501.0103908,-7.0,159.0,-1377.0
1772222501.0058634,-7.0,159.0,-1379.0
1772222501.0138633,-5.0,160.0,-1377.0
1772222501.0089233,-5.0,159.0,-1376.0
1772222501.0169232,-5.0,158.0,-1376.0
1772222501.0109398,-6.0,158.0,-1375.0
1772222501.0189397,-5.0,158.0,-1377.0
1772222501.0129974,-5.0,158.0,-1379.0
1772222501.0209973,-4.0,159.0,-1377.0
1772222501.013993,-4.0,159.0,-1377.0
1772222501.021993,-4.0,160.0,-1376.0
1772222501.0176046,-4.0,159.0,-1374.0
1772222501.0256045,-4.0,159.0,-1374.0
1772222501.036302,-4.0,159.0,-1376.0
1772222501.044302,-5.0,159.0,-1375.0
1772222501.0652685,-4.0,158.0,-1376.0
1772222501.0732684,-5.0,158.0,-1376.0
1772222501.067433,-5.0,158.0,-1376.0
1772222501.075433,-4.0,156.0,-1374.0
1772222501.0794437,-6.0,158.0,-1374.0
1772222501.0874436,-4.0,157.0,-1374.0
1772222501.0854385,-6.0,157.0,-1373.0
1772222501.0934384,-6.0,157.0,-1374.0
1772222501.0879328,-6.0,157.0,-1374.0
1772222501.0959327,-5.0,158.0,-1372.0
1772222501.1109874,-5.0,158.0,-1373.0
1772222501.1189873,-5.0,157.0,-1378.0
1772222501.1125548,-4.0,158.0,-1374.0
1772222501.1205547,-5.0,158.0,-1376.0
1772222501.147808,-6.0,158.0,-1375.0
1772222501.155808,-6.0,158.0,-1375.0
1772222501.1498897,-5.0,157.0,-1377.0
1772222501.1578896,-5.0,158.0,-1376.0
1772222501.151424,-4.0,158.0,-1376.0
1772222501.1594238,-5.0,158.0,-1374.0
1772222501.152996,-5.0,159.0,-1373.0
1772222501.160996,-5.0,158.0,-1374.0
1772222501.1545308,-5.0,158.0,-1374.0
1772222501.1625307,-4.0,158.0,-1376.0
1772222501.156071,-6.0,157.0,-1374.0
1772222501.1640708,-5.0,157.0,-1376.0
1772222501.1577094,-6.0,157.0,-1377.0
1772222501.1657093,-6.0,157.0,-1375.0
1772222501.1591287,-5.0,158.0,-1376.0
1772222501.1671286,-5.0,158.0,-1379.0
1772222501.1649206,-7.0,157.0,-1378.0
1772222501.1729205,-6.0,157.0,-1379.0
1772222501.1674678,-5.0,157.0,-1379.0
1772222501.1754677,-6.0,158.0,-1379.0
1772222501.169014,-5.0,158.0,-1379.0
1772222501.1770139,-5.0,157.0,-1378.0
1772222501.1712654,-5.0,158.0,-1376.0
1772222501.1792653,-5.0,157.0,-1378.0
1772222501.1738968,-5.0,157.0,-1377.0
1772222501.1818967,-4.0,158.0,-1375.0
1772222501.1772833,-4.0,158.0,-1378.0
1772222501.1852832,-5.0,158.0,-1376.0
1772222501.1865892,-5.0,157.0,-1375.0
1772222501.1945891,-6.0,157.0,-1376.0
1772222501.2250438,-5.0,157.0,-1376.0
1772222501.2330437,-5.0,157.0,-1375.0
1772222501.2421331,-5.0,158.0,-1374.0
1772222501.250133,-5.0,157.0,-1376.0
1772222501.2572863,-6.0,157.0,-1376.0
1772222501.2652862,-5.0,157.0,-1375.0
1772222501.2670765,-5.0,157.0,-1377.0
1772222501.2750764,-6.0,157.0,-1377.0
1772222501.2731614,-5.0,157.0,-1375.0
1772222501.2811613,-6.0,157.0,-1375.0
1772222501.2991443,-6.0,156.0,-1377.0
1772222501.3071442,-6.0,157.0,-1377.0
1772222501.3024013,-5.0,158.0,-1378.0
1772222501.3104012,-5.0,158.0,-1377.0
1772222501.3034246,-4.0,157.0,-1377.0
1772222501.3114245,-5.0,158.0,-1378.0
1772222501.3053186,-5.0,157.0,-1378.0
1772222501.3133185,-5.0,157.0,-1377.0
1772222501.3074048,-4.0,158.0,-1376.0
1772222501.3154047,-5.0,157.0,-1375.0
1772222501.3093836,-6.0,157.0,-1374.0
1772222501.3173835,-6.0,157.0,-1377.0
1772222501.3127773,-5.0,157.0,-1374.0
1772222501.3207772,-7.0,157.0,-1374.0
1772222501.3169467,-6.0,157.0,-1376.0
1772222501.3249466,-5.0,157.0,-1376.0
1772222501.3207428,-5.0,157.0,-1375.0
1772222501.3287427,-5.0,158.0,-1376.0
1772222501.32393,-5.0,157.0,-1376.0
1772222501.33193,-5.0,157.0,-1375.0
1772222501.325922,-5.0,156.0,-1376.0
1772222501.333922,-6.0,156.0,-1376.0
1772222501.3461246,-5.0,158.0,-1379.0
1772222501.3541245,-5.0,157.0,-1378.0
1772222501.3819854,-4.0,158.0,-1377.0
1772222501.3899853,-6.0,157.0,-1376.0
1772222501.3907664,-5.0,159.0,-1377.0
1772222501.3987663,-6.0,158.0,-1377.0
1772222501.397855,-6.0,158.0,-1376.0
1772222501.405855,-5.0,158.0,-1376.0
1772222501.4253933,-4.0,159.0,-1376.0
1772222501.4333932,-5.0,158.0,-1377.0
1772222501.4520862,-4.0,158.0,-1378.0
1772222501.460086,-3.0,158.0,-1378.0
1772222501.45387,-4.0,159.0,-1378.0
1772222501.46187,-4.0,157.0,-1378.0
1772222501.4554498,-4.0,158.0,-1379.0
1772222501.4634497,-3.0,159.0,-1377.0
1772222501.4574955,-2.0,159.0,-1378.0
1772222501.4654953,-4.0,158.0,-1378.0
1772222501.4592307,-4.0,159.0,-1377.0
1772222501.4672306,-3.0,159.0,-1377.0
1772222501.460556,-3.0,160.0,-1376.0
1772222501.468556,-4.0,159.0,-1375.0
1772222501.462582,-2.0,159.0,-1373.0
1772222501.470582,-2.0,160.0,-1372.0
1772222501.464435,-2.0,160.0,-1368.0
1772222501.472435,-1.0,160.0,-1371.0
1772222501.4685974,0.0,161.0,-1372.0
1772222501.4765973,1.0,161.0,-1373.0
1772222501.471682,0.0,162.0,-1373.0
1772222501.479682,-1.0,161.0,-1376.0
1772222501.4737525,-1.0,161.0,-1376.0
1772222501.4817524,-1.0,161.0,-1378.0
1772222501.4777505,-1.0,161.0,-1378.0
1772222501.4857504,-2.0,160.0,-1378.0
1772222501.4909902,-2.0,160.0,-1378.0
1772222501.49899,-1.0,160.0,-1376.0
1772222501.5396755,-2.0,160.0,-1376.0
1772222501.5476754,0.0,161.0,-1377.0
1772222501.5625408,-1.0,160.0,-1378.0
1772222501.5705407,-1.0,160.0,-1378.0
1772222501.5645328,-1.0,161.0,-1377.0
1772222501.5725327,-1.0,160.0,-1376.0
1772222501.5660539,0.0,160.0,-1377.0
1772222501.5740538,-2.0,161.0,-1376.0
1772222501.5677984,-2.0,161.0,-1375.0
1772222501.5757983,0.0,161.0,-1377.0
1772222501.5693352,-1.0,161.0,-1375.0
1772222501.5773351,-2.0,161.0,-1375.0
1772222501.571854,-2.0,162.0,-1376.0
1772222501.579854,-1.0,162.0,-1378.0
1772222501.5751743,-1.0,162.0,-1379.0
1772222501.5831742,0.0,162.0,-1377.0
1772222501.5774436,0.0,163.0,-1377.0
1772222501.5854435,-1.0,162.0,-1377.0
1772222501.5807247,0.0,162.0,-1379.0
1772222501.5887246,0.0,163.0,-1378.0
1772222501.5838048,0.0,162.0,-1377.0
1772222501.5918047,0.0,163.0,-1377.0
1772222501.6048481,-1.0,162.0,-1376.0
1772222501.612848,0.0,163.0,-1376.0
1772222501.6789207,0.0,162.0,-1377.0
1772222501.6869206,0.0,162.0,-1378.0
1772222501.699692,0.0,163.0,-1378.0
1772222501.707692,-1.0,163.0,-1377.0
1772222501.7246592,1.0,164.0,-1376.0
1772222501.732659,1.0,163.0,-1376.0
1772222501.7265227,0.0,161.0,-1376.0
1772222501.7345226,-2.0,159.0,-1376.0
1772222501.728302,-3.0,158.0,-1375.0
1772222501.736302,-4.0,157.0,-1377.0
1772222501.7298868,-7.0,155.0,-1377.0
1772222501.7378867,-9.0,152.0,-1376.0
1772222501.7314754,-10.0,152.0,-1375.0
1772222501.7394753,-12.0,150.0,-1377.0
1772222501.7335212,-11.0,151.0,-1375.0
1772222501.7415211,-11.0,151.0,-1375.0
1772222501.7355142,-12.0,151.0,-1376.0
1772222501.743514,-12.0,150.0,-1374.0
1772222501.7375169,-11.0,150.0,-1378.0
1772222501.7455168,-12.0,150.0,-1378.0
1772222501.7401235,-12.0,151.0,-1376.0
1772222501.7481234,-11.0,151.0,-1376.0
1772222501.742662,-10.0,151.0,-1375.0
1772222501.7506618,-9.0,152.0,-1375.0
1772222501.7456558,-13.0,152.0,-1377.0
1772222501.7536557,-11.0,151.0,-1375.0
1772222501.7476542,-10.0,152.0,-1375.0
1772222501.755654,-11.0,152.0,-1376.0
1772222501.749649,-10.0,152.0,-1376.0
1772222501.757649,-11.0,150.0,-1375.0
1772222501.7518861,-10.0,151.0,-1377.0
1772222501.759886,-11.0,152.0,-1376.0
1772222501.7549648,-11.0,152.0,-1376.0
1772222501.7629647,-11.0,152.0,-1375.0
1772222501.7589574,-10.0,152.0,-1377.0
1772222501.7669573,-10.0,152.0,-1376.0
1772222501.7752283,-10.0,151.0,-1377.0
1772222501.7832282,-10.0,151.0,-1376.0
1772222501.7768648,-10.0,152.0,-1375.0
1772222501.7848647,-10.0,153.0,-1375.0
1772222501.7789218,-10.0,153.0,-1379.0
1772222501.7869217,-10.0,152.0,-1375.0
1772222501.8079925,-9.0,153.0,-1374.0
1772222501.8159924,-10.0,152.0,-1376.0
1772222501.8184814,-9.0,154.0,-1377.0
1772222501.8264813,-9.0,153.0,-1378.0
1772222501.8559954,-9.0,154.0,-1377.0
1772222501.8639953,-10.0,153.0,-1376.0
1772222501.8792171,-9.0,153.0,-1378.0
1772222501.887217,-9.0,152.0,-1377.0
1772222501.8811674,-10.0,152.0,-1375.0
1772222501.8891673,-9.0,153.0,-1377.0
1772222501.883061,-10.0,154.0,-1376.0
1772222501.8910608,-8.0,154.0,-1376.0
1772222501.884646,-8.0,154.0,-1376.0
1772222501.8926458,-8.0,154.0,-1376.0
1772222501.8862917,-9.0,154.0,-1376.0
1772222501.8942916,-7.0,155.0,-1376.0
1772222501.88778,-8.0,154.0,-1376.0
1772222501.8957798,-8.0,154.0,-1375.0
1772222501.890389,-8.0,155.0,-1377.0
1772222501.8983889,-8.0,155.0,-1376.0
1772222501.8923867,-8.0,155.0,-1376.0
1772222501.9003866,-8.0,154.0,-1375.0
1772222501.8953857,-8.0,154.0,-1376.0
1772222501.9033856,-9.0,154.0,-1376.0
1772222501.8984275,-8.0,155.0,-1375.0
1772222501.9064274,-8.0,156.0,-1374.0
1772222501.8999557,-10.0,154.0,-1371.0
1772222501.9079556,-9.0,153.0,-1372.0
1772222501.9019985,-9.0,152.0,-1377.0
1772222501.9099984,-8.0,152.0,-1376.0
1772222501.9047186,-8.0,153.0,-1374.0
1772222501.9127185,-8.0,153.0,-1374.0
1772222501.9081087,-7.0,154.0,-1373.0
1772222501.9161086,-8.0,153.0,-1373.0
1772222501.9264255,-8.0,153.0,-1376.0
1772222501.9344254,-7.0,154.0,-1376.0
1772222501.9559808,-7.0,153.0,-1375.0
1772222501.9639807,-8.0,154.0,-1373.0
1772222501.970258,-8.0,153.0,-1375.0
1772222501.978258,-8.0,153.0,-1376.0
1772222502.0072837,-8.0,155.0,-1374.0
1772222502.0152836,-7.0,154.0,-1373.0
1772222502.0151331,-9.0,154.0,-1374.0
1772222502.023133,-8.0,154.0,-1375.0
1772222502.036483,-8.0,154.0,-1376.0
1772222502.044483,-8.0,154.0,-1376.0
1772222502.0385537,-7.0,155.0,-1375.0
1772222502.0465536,-8.0,155.0,-1377.0
1772222502.0401058,-8.0,154.0,-1376.0
1772222502.0481057,-9.0,155.0,-1373.0
1772222502.0416706,-7.0,155.0,-1375.0
1772222502.0496705,-6.0,155.0,-1378.0
1772222502.0432835,-7.0,156.0,-1376.0
1772222502.0512834,-7.0,154.0,-1375.0
1772222502.045459,-7.0,155.0,-1376.0
1772222502.053459,-8.0,155.0,-1377.0
1772222502.0470157,-8.0,155.0,-1376.0
1772222502.0550156,-7.0,154.0,-1374.0
1772222502.0486157,-7.0,153.0,-1373.0
1772222502.0566156,-6.0,155.0,-1374.0
1772222502.0507624,-8.0,155.0,-1375.0
1772222502.0587623,-8.0,155.0,-1375.0
1772222502.0524251,-8.0,154.0,-1374.0
1772222502.060425,-7.0,154.0,-1372.0
1772222502.053826,-8.0,154.0,-1372.0
1772222502.061826,-7.0,155.0,-1375.0
1772222502.0554464,-8.0,155.0,-1372.0
1772222502.0634463,-7.0,155.0,-1372.0
1772222502.0578156,-9.0,154.0,-1372.0
1772222502.0658154,-7.0,155.0,-1371.0
1772222502.059889,-7.0,155.0,-1370.0
1772222502.067889,-6.0,156.0,-1368.0
1772222502.0615637,-5.0,158.0,-1368.0
1772222502.0695636,-6.0,157.0,-1370.0
1772222502.0632265,-6.0,156.0,-1371.0
1772222502.0712264,-7.0,157.0,-1373.0
1772222502.0653133,-5.0,157.0,-1376.0
1772222502.0733132,-7.0,157.0,-1376.0
1772222502.066853,-7.0,157.0,-1374.0
1772222502.074853,-7.0,156.0,-1376.0
1772222502.0700219,-7.0,156.0,-1375.0
1772222502.0780218,-7.0,157.0,-1375.0
1772222502.0723429,-8.0,155.0,-1375.0
1772222502.0803428,-8.0,155.0,-1374.0
1772222502.0754044,-8.0,154.0,-1373.0
1772222502.0834043,-8.0,154.0,-1373.0
1772222502.0787735,-9.0,155.0,-1374.0
1772222502.0867734,-7.0,155.0,-1372.0
1772222502.081303,-8.0,155.0,-1373.0
1772222502.0893028,-9.0,155.0,-1374.0
1772222502.083886,-9.0,155.0,-1374.0
1772222502.0918858,-9.0,153.0,-1373.0
1772222502.0865052,-8.0,154.0,-1373.0
1772222502.094505,-8.0,153.0,-1374.0
1772222502.0935256,-9.0,153.0,-1373.0
1772222502.1015255,-9.0,154.0,-1374.0
1772222502.128885,-8.0,154.0,-1373.0
1772222502.136885,-9.0,153.0,-1373.0
1772222502.1308908,-9.0,154.0,-1373.0
1772222502.1388907,-10.0,153.0,-1373.0
1772222502.1624486,-10.0,153.0,-1371.0
1772222502.1704485,-10.0,153.0,-1372.0
1772222502.2108529,-9.0,153.0,-1373.0
1772222502.2188528,-10.0,152.0,-1373.0
1772222502.2124138,-10.0,153.0,-1372.0
1772222502.2204137,-10.0,153.0,-1372.0
1772222502.2142086,-10.0,153.0,-1372.0
1772222502.2222085,-10.0,152.0,-1373.0
1772222502.2159688,-9.0,152.0,-1373.0
1772222502.2239687,-10.0,153.0,-1372.0
1772222502.2175415,-11.0,153.0,-1372.0
1772222502.2255414,-11.0,152.0,-1373.0
1772222502.2185502,-10.0,152.0,-1374.0
1772222502.22655,-9.0,154.0,-1373.0
1772222502.221573,-10.0,153.0,-1372.0
1772222502.229573,-10.0,153.0,-1370.0
1772222502.2235932,-10.0,153.0,-1372.0
1772222502.2315931,-10.0,153.0,-1372.0
1772222502.2252119,-10.0,153.0,-1373.0
1772222502.2332118,-11.0,153.0,-1373.0
1772222502.227871,-10.0,153.0,-1373.0
1772222502.2358708,-10.0,153.0,-1374.0
1772222502.2300808,-10.0,152.0,-1372.0
1772222502.2380807,-10.0,153.0,-1373.0
1772222502.2321641,-10.0,153.0,-1375.0
1772222502.240164,-10.0,153.0,-1374.0
1772222502.2343001,-10.0,153.0,-1373.0
1772222502.2423,-9.0,153.0,-1374.0
1772222502.2371998,-11.0,152.0,-1373.0
1772222502.2451997,-10.0,152.0,-1372.0
1772222502.239789,-9.0,154.0,-1374.0
1772222502.247789,-10.0,153.0,-1373.0
1772222502.2408082,-10.0,152.0,-1371.0
1772222502.2488081,-10.0,153.0,-1372.0
1772222502.243332,-11.0,152.0,-1370.0
1772222502.2513318,-10.0,153.0,-1368.0
1772222502.2594016,-10.0,153.0,-1372.0
1772222502.2674015,-11.0,153.0,-1372.0
1772222502.3205683,-9.0,153.0,-1374.0
1772222502.3285682,-11.0,152.0,-1372.0
1772222502.3411121,-10.0,153.0,-1374.0
1772222502.349112,-10.0,153.0,-1373.0
1772222502.3431153,-10.0,153.0,-1375.0
1772222502.3511152,-9.0,153.0,-1374.0
1772222502.3450139,-9.0,154.0,-1374.0
1772222502.3530138,-9.0,153.0,-1376.0
1772222502.346518,-9.0,154.0,-1376.0
1772222502.354518,-10.0,154.0,-1375.0
1772222502.3480532,-10.0,154.0,-1376.0
1772222502.356053,-9.0,154.0,-1375.0
1772222502.3522232,-8.0,154.0,-1375.0
1772222502.360223,-8.0,154.0,-1374.0
1772222502.3552783,-9.0,154.0,-1374.0
1772222502.3632782,-8.0,155.0,-1374.0
1772222502.3564842,-9.0,154.0,-1373.0
1772222502.364484,-8.0,154.0,-1373.0
1772222502.3585389,-8.0,155.0,-1371.0
1772222502.3665388,-7.0,155.0,-1373.0
1772222502.3609452,-8.0,156.0,-1372.0
1772222502.3689451,-8.0,155.0,-1370.0
1772222502.3664029,-9.0,154.0,-1373.0
1772222502.3744028,-9.0,154.0,-1372.0
1772222502.3676777,-8.0,154.0,-1373.0
1772222502.3756776,-10.0,154.0,-1373.0
1772222502.3697534,-8.0,154.0,-1372.0
1772222502.3777533,-8.0,154.0,-1372.0
1772222502.382304,-9.0,154.0,-1372.0
1772222502.3903039,-9.0,155.0,-1369.0
1772222502.4135017,-8.0,155.0,-1371.0
1772222502.4215016,-9.0,154.0,-1374.0
1772222502.4254937,-10.0,153.0,-1373.0
1772222502.4334936,-8.0,155.0,-1374.0
1772222502.4819326,-8.0,154.0,-1372.0
1772222502.4899325,-8.0,154.0,-1371.0
1772222502.4835827,-9.0,154.0,-1373.0
1772222502.4915826,-8.0,155.0,-1374.0
1772222502.4855542,-9.0,155.0,-1374.0
1772222502.493554,-10.0,155.0,-1373.0
1772222502.487057,-10.0,153.0,-1373.0
1772222502.4950569,-9.0,154.0,-1372.0
1772222502.4886558,-9.0,154.0,-1373.0
1772222502.4966557,-9.0,154.0,-1374.0
1772222502.4901547,-9.0,155.0,-1373.0
1772222502.4981546,-9.0,154.0,-1371.0
1772222502.4953794,-9.0,154.0,-1372.0
1772222502.5033793,-9.0,154.0,-1372.0
1772222502.4979658,-8.0,156.0,-1372.0
1772222502.5059657,-9.0,154.0,-1374.0
1772222502.4997926,-9.0,154.0,-1374.0
1772222502.5077925,-9.0,154.0,-1373.0
1772222502.5019398,-9.0,155.0,-1371.0
1772222502.5099397,-9.0,154.0,-1375.0
1772222502.5054083,-9.0,154.0,-1376.0
1772222502.5134082,-8.0,154.0,-1373.0
1772222502.5070627,-9.0,154.0,-1373.0
1772222502.5150626,-10.0,154.0,-1371.0
1772222502.5097554,-10.0,154.0,-1373.0
1772222502.5177553,-9.0,155.0,-1372.0
1772222502.515313,-8.0,154.0,-1372.0
1772222502.5233128,-10.0,154.0,-1373.0
1772222502.544533,-9.0,154.0,-1373.0
1772222502.552533,-9.0,154.0,-1374.0
1772222502.575733,-9.0,154.0,-1373.0
1772222502.5837328,-10.0,153.0,-1372.0
1772222502.5785172,-10.0,154.0,-1373.0
1772222502.586517,-10.0,153.0,-1374.0
1772222502.614085,-10.0,153.0,-1373.0
1772222502.6220849,-10.0,154.0,-1376.0
1772222502.6163373,-9.0,154.0,-1374.0
1772222502.6243372,-9.0,154.0,-1373.0
1772222502.6180859,-10.0,154.0,-1373.0
1772222502.6260858,-10.0,153.0,-1373.0
1772222502.61957,-10.0,154.0,-1372.0
1772222502.62757,-9.0,153.0,-1372.0
1772222502.6213186,-10.0,153.0,-1372.0
1772222502.6293185,-11.0,153.0,-1370.0
1772222502.6228888,-10.0,153.0,-1367.0
1772222502.6308887,-10.0,154.0,-1367.0
1772222502.6264863,-9.0,154.0,-1369.0
1772222502.6344862,-8.0,154.0,-1370.0
1772222502.6285148,-9.0,153.0,-1368.0
1772222502.6365147,-10.0,154.0,-1369.0
1772222502.6305068,-10.0,154.0,-1371.0
1772222502.6385067,-10.0,154.0,-1373.0
1772222502.6335077,-10.0,153.0,-1376.0
1772222502.6415076,-12.0,152.0,-1376.0
1772222502.636974,-11.0,152.0,-1376.0
1772222502.644974,-13.0,151.0,-1375.0
1772222502.6389987,-13.0,151.0,-1375.0
1772222502.6469986,-13.0,152.0,-1373.0
1772222502.6442673,-12.0,152.0,-1373.0
1772222502.6522672,-12.0,152.0,-1371.0
1772222502.6707258,-12.0,152.0,-1370.0
1772222502.6787257,-13.0,152.0,-1374.0
1772222502.695921,-13.0,151.0,-1373.0
1772222502.7039208,-13.0,151.0,-1373.0
1772222502.727707,-12.0,151.0,-1373.0
1772222502.7357068,-12.0,152.0,-1372.0
1772222502.7297506,-13.0,152.0,-1373.0
1772222502.7377505,-12.0,152.0,-1373.0
1772222502.7312748,-12.0,151.0,-1372.0
1772222502.7392747,-12.0,151.0,-1373.0
1772222502.7340763,-11.0,152.0,-1373.0
1772222502.7420762,-12.0,152.0,-1372.0
1772222502.7372847,-12.0,152.0,-1372.0
1772222502.7452846,-12.0,152.0,-1374.0
1772222502.7387364,-12.0,151.0,-1373.0
1772222502.7467363,-13.0,153.0,-1373.0
1772222502.7420764,-10.0,152.0,-1374.0
1772222502.7500763,-10.0,153.0,-1374.0
1772222502.744103,-11.0,153.0,-1373.0
1772222502.7521029,-11.0,152.0,-1372.0
1772222502.7451231,-11.0,152.0,-1373.0
1772222502.753123,-11.0,153.0,-1371.0
1772222502.7476072,-12.0,152.0,-1370.0
1772222502.7556071,-11.0,153.0,-1373.0
1772222502.7501276,-12.0,153.0,-1374.0
1772222502.7581275,-11.0,153.0,-1373.0
1772222502.7522123,-12.0,152.0,-1371.0
1772222502.7602122,-12.0,152.0,-1370.0
1772222502.7532163,-11.0,152.0,-1372.0
1772222502.7612162,-11.0,153.0,-1372.0
1772222502.7562244,-11.0,151.0,-1371.0
1772222502.7642243,-11.0,152.0,-1371.0
1772222502.7682183,-10.0,152.0,-1369.0
1772222502.7762182,-12.0,152.0,-1370.0
1772222502.7962172,-11.0,152.0,-1371.0
1772222502.804217,-13.0,151.0,-1372.0
1772222502.8067615,-12.0,151.0,-1371.0
1772222502.8147614,-13.0,150.0,-1372.0
1772222502.8340464,-13.0,150.0,-1373.0
1772222502.8420463,-14.0,149.0,-1372.0
1772222502.8440971,-14.0,151.0,-1369.0
1772222502.852097,-14.0,151.0,-1370.0
1772222502.8677878,-13.0,151.0,-1376.0
1772222502.8757877,-13.0,151.0,-1373.0
1772222502.86931,-12.0,152.0,-1374.0
1772222502.8773098,-13.0,151.0,-1374.0
1772222502.8709123,-12.0,150.0,-1374.0
1772222502.8789122,-14.0,151.0,-1373.0
1772222502.8724763,-14.0,152.0,-1372.0
1772222502.8804762,-13.0,152.0,-1372.0
1772222502.8735125,-14.0,150.0,-1374.0
1772222502.8815124,-14.0,151.0,-1372.0
1772222502.875548,-14.0,152.0,-1370.0
1772222502.8835478,-13.0,151.0,-1370.0
1772222502.8772056,-13.0,150.0,-1374.0
1772222502.8852055,-14.0,150.0,-1373.0
1772222502.8822525,-13.0,152.0,-1372.0
1772222502.8902524,-13.0,150.0,-1372.0
1772222502.884736,-14.0,151.0,-1372.0
1772222502.892736,-14.0,152.0,-1372.0
1772222502.8862565,-12.0,151.0,-1372.0
1772222502.8942564,-13.0,152.0,-1373.0
1772222502.8879242,-12.0,152.0,-1373.0
1772222502.895924,-14.0,153.0,-1373.0
1772222502.8899133,-13.0,152.0,-1372.0
1772222502.8979132,-13.0,152.0,-1372.0
1772222502.8927333,-12.0,153.0,-1371.0
1772222502.9007332,-11.0,152.0,-1373.0
1772222502.8956168,-13.0,152.0,-1373.0
1772222502.9036167,-13.0,152.0,-1373.0
1772222502.897129,-12.0,153.0,-1373.0
1772222502.905129,-12.0,155.0,-1372.0
1772222502.9091651,-13.0,153.0,-1373.0
1772222502.917165,-13.0,152.0,-1372.0
1772222502.9787295,-12.0,152.0,-1372.0
1772222502.9867294,-13.0,152.0,-1371.0
1772222503.003669,-12.0,152.0,-1368.0
1772222503.011669,-12.0,152.0,-1366.0
1772222503.0056896,-12.0,152.0,-1374.0
1772222503.0136895,-11.0,152.0,-1374.0
1772222503.0074332,-13.0,152.0,-1372.0
1772222503.015433,-11.0,152.0,-1371.0
1772222503.0094838,-11.0,153.0,-1373.0
1772222503.0174837,-11.0,153.0,-1368.0
1772222503.010969,-11.0,153.0,-1369.0
1772222503.0189688,-12.0,152.0,-1375.0
1772222503.0125575,-12.0,152.0,-1369.0
1772222503.0205574,-11.0,152.0,-1370.0
1772222503.0141122,-12.0,152.0,-1376.0
1772222503.0221121,-11.0,153.0,-1373.0
1772222503.0156076,-11.0,153.0,-1375.0
1772222503.0236075,-11.0,152.0,-1374.0
1772222503.017669,-11.0,153.0,-1374.0
1772222503.0256689,-11.0,152.0,-1374.0
1772222503.0204298,-12.0,152.0,-1375.0
1772222503.0284297,-11.0,152.0,-1374.0
1772222503.0214612,-12.0,153.0,-1374.0
1772222503.0294611,-11.0,153.0,-1374.0
1772222503.025792,-11.0,153.0,-1374.0
1772222503.0337918,-11.0,153.0,-1373.0
1772222503.0275078,-10.0,153.0,-1373.0
1772222503.0355077,-11.0,153.0,-1373.0
1772222503.0295734,-11.0,153.0,-1374.0
1772222503.0375733,-10.0,154.0,-1374.0
1772222503.033578,-11.0,154.0,-1373.0
1772222503.0415778,-10.0,154.0,-1373.0
1772222503.0385907,-10.0,155.0,-1373.0
1772222503.0465906,-10.0,153.0,-1373.0
1772222503.0415874,-11.0,153.0,-1373.0
1772222503.0495872,-10.0,153.0,-1372.0
1772222503.0886643,-10.0,154.0,-1370.0
1772222503.0966642,-9.0,154.0,-1367.0
1772222503.1201925,-9.0,154.0,-1366.0
1772222503.1281924,-10.0,155.0,-1368.0
1772222503.160653,-10.0,155.0,-1370.0
1772222503.168653,-10.0,155.0,-1374.0
1772222503.1622365,-10.0,153.0,-1375.0
1772222503.1702363,-12.0,153.0,-1376.0
1772222503.1636992,-11.0,154.0,-1378.0
1772222503.171699,-10.0,154.0,-1376.0
1772222503.1652787,-11.0,154.0,-1375.0
1772222503.1732786,-10.0,154.0,-1374.0
1772222503.167345,-11.0,154.0,-1374.0
1772222503.175345,-11.0,153.0,-1375.0
1772222503.1684265,-11.0,154.0,-1374.0
1772222503.1764264,-10.0,154.0,-1374.0
1772222503.1699917,-11.0,153.0,-1373.0
1772222503.1779916,-12.0,153.0,-1372.0
1772222503.1715405,-11.0,153.0,-1373.0
1772222503.1795404,-12.0,153.0,-1373.0
1772222503.173121,-10.0,153.0,-1372.0
1772222503.1811209,-10.0,153.0,-1374.0
1772222503.1747344,-12.0,153.0,-1370.0
1772222503.1827343,-11.0,154.0,-1370.0
1772222503.1763127,-10.0,154.0,-1373.0
1772222503.1843126,-12.0,154.0,-1373.0
1772222503.1784375,-11.0,154.0,-1371.0
1772222503.1864374,-11.0,154.0,-1370.0
1772222503.1815236,-11.0,155.0,-1373.0
1772222503.1895235,-10.0,154.0,-1371.0
1772222503.1860447,-11.0,155.0,-1372.0
1772222503.1940446,-11.0,155.0,-1373.0
1772222503.1881356,-10.0,154.0,-1372.0
1772222503.1961355,-10.0,154.0,-1374.0
1772222503.1915534,-9.0,154.0,-1374.0
1772222503.1995533,-11.0,155.0,-1373.0
1772222503.1925738,-12.0,154.0,-1371.0
1772222503.2005737,-10.0,154.0,-1371.0
1772222503.1951096,-10.0,155.0,-1372.0
1772222503.2031095,-12.0,154.0,-1373.0
1772222503.2129674,-10.0,154.0,-1371.0
1772222503.2209673,-10.0,153.0,-1372.0
1772222503.2419496,-11.0,155.0,-1374.0
1772222503.2499495,-10.0,155.0,-1373.0
1772222503.2524688,-10.0,155.0,-1372.0
1772222503.2604687,-10.0,155.0,-1372.0
1772222503.2854664,-10.0,155.0,-1375.0
1772222503.2934663,-11.0,155.0,-1375.0
1772222503.2943163,-12.0,153.0,-1373.0
1772222503.3023162,-11.0,154.0,-1374.0
1772222503.324563,-10.0,154.0,-1374.0
1772222503.332563,-11.0,153.0,-1376.0
1772222503.3263233,-10.0,154.0,-1374.0
1772222503.3343232,-10.0,154.0,-1375.0
1772222503.3280275,-11.0,155.0,-1375.0
1772222503.3360274,-10.0,154.0,-1373.0
1772222503.329675,-10.0,154.0,-1372.0
1772222503.3376749,-9.0,154.0,-1371.0
1772222503.3331141,-10.0,154.0,-1373.0
1772222503.341114,-11.0,154.0,-1373.0
1772222503.335532,-11.0,155.0,-1374.0
1772222503.3435318,-10.0,154.0,-1374.0
1772222503.3378088,-11.0,153.0,-1373.0
1772222503.3458087,-12.0,154.0,-1371.0
1772222503.3410575,-11.0,154.0,-1372.0
1772222503.3490574,-10.0,154.0,-1373.0
1772222503.3436809,-11.0,154.0,-1373.0
1772222503.3516808,-10.0,155.0,-1372.0
1772222503.346559,-11.0,154.0,-1371.0
1772222503.354559,-11.0,153.0,-1373.0
1772222503.3477378,-11.0,153.0,-1375.0
1772222503.3557377,-10.0,154.0,-1373.0
1772222503.3498526,-10.0,153.0,-1372.0
1772222503.3578525,-11.0,154.0,-1375.0
1772222503.3585258,-11.0,154.0,-1375.0
1772222503.3665257,-11.0,153.0,-1375.0
1772222503.3800786,-11.0,153.0,-1376.0
1772222503.3880785,-11.0,153.0,-1375.0
1772222503.403884,-11.0,154.0,-1373.0
1772222503.4118838,-11.0,155.0,-1373.0
1772222503.4129927,-11.0,153.0,-1372.0
1772222503.4209926,-12.0,153.0,-1373.0
1772222503.465491,-10.0,152.0,-1373.0
1772222503.473491,-10.0,153.0,-1371.0
1772222503.467541,-12.0,154.0,-1374.0
1772222503.4755409,-12.0,154.0,-1376.0
1772222503.4690754,-12.0,154.0,-1374.0
1772222503.4770753,-10.0,154.0,-1375.0
1772222503.470543,-10.0,153.0,-1376.0
1772222503.4785428,-11.0,153.0,-1375.0
1772222503.4731958,-11.0,154.0,-1374.0
1772222503.4811957,-11.0,154.0,-1374.0
1772222503.477575,-11.0,154.0,-1374.0
1772222503.485575,-10.0,155.0,-1379.0
1772222503.4796207,-11.0,154.0,-1377.0
1772222503.4876206,-10.0,154.0,-1376.0
1772222503.4824722,-11.0,154.0,-1375.0
1772222503.490472,-11.0,154.0,-1374.0
1772222503.4845042,-11.0,154.0,-1374.0
1772222503.4925041,-9.0,155.0,-1376.0
1772222503.4860477,-11.0,154.0,-1375.0
1772222503.4940476,-11.0,154.0,-1373.0
1772222503.4880981,-10.0,154.0,-1374.0
1772222503.496098,-11.0,154.0,-1373.0
1772222503.5327349,-10.0,154.0,-1373.0
1772222503.5407348,-9.0,155.0,-1372.0
1772222503.5565255,-10.0,155.0,-1372.0
1772222503.5645254,-10.0,154.0,-1370.0
1772222503.5667796,-9.0,156.0,-1372.0
1772222503.5747795,-9.0,156.0,-1373.0
1772222503.592822,-8.0,155.0,-1374.0
1772222503.600822,-9.0,155.0,-1373.0
1772222503.5955946,-10.0,155.0,-1373.0
1772222503.6035945,-10.0,155.0,-1372.0
1772222503.5972383,-10.0,155.0,-1374.0
1772222503.6052382,-10.0,154.0,-1374.0
1772222503.598655,-11.0,154.0,-1375.0
1772222503.606655,-10.0,155.0,-1376.0
1772222503.6008728,-10.0,154.0,-1376.0
1772222503.6088727,-9.0,153.0,-1375.0
1772222503.6025229,-12.0,154.0,-1375.0
1772222503.6105227,-10.0,154.0,-1374.0
1772222503.6040711,-10.0,153.0,-1375.0
1772222503.612071,-11.0,154.0,-1375.0
1772222503.605688,-11.0,154.0,-1376.0
1772222503.613688,-10.0,153.0,-1374.0
1772222503.6072614,-11.0,154.0,-1374.0
1772222503.6152613,-11.0,154.0,-1376.0
1772222503.6088734,-12.0,154.0,-1377.0
1772222503.6168733,-11.0,154.0,-1374.0
1772222503.610913,-10.0,154.0,-1373.0
1772222503.618913,-10.0,154.0,-1373.0
1772222503.6168747,-11.0,154.0,-1376.0
1772222503.6248746,-11.0,154.0,-1376.0
1772222503.6184556,-11.0,154.0,-1376.0
1772222503.6264555,-11.0,153.0,-1374.0
1772222503.6208928,-10.0,154.0,-1372.0
1772222503.6288927,-12.0,154.0,-1372.0
1772222503.6224668,-12.0,153.0,-1376.0
1772222503.6304667,-12.0,153.0,-1375.0
1772222503.62506,-11.0,152.0,-1377.0
1772222503.63306,-11.0,153.0,-1374.0
1772222503.6270893,-10.0,153.0,-1374.0
1772222503.6350892,-10.0,154.0,-1373.0
1772222503.630635,-9.0,156.0,-1371.0
1772222503.638635,-9.0,156.0,-1373.0
1772222503.6915164,-9.0,155.0,-1373.0
1772222503.6995163,-8.0,156.0,-1374.0
1772222503.692517,-9.0,156.0,-1376.0
1772222503.700517,-8.0,156.0,-1379.0
1772222503.6994982,-11.0,156.0,-1379.0
1772222503.707498,-10.0,155.0,-1378.0
1772222503.7357037,-9.0,155.0,-1378.0
1772222503.7437036,-10.0,155.0,-1377.0
1772222503.7707722,-10.0,154.0,-1377.0
1772222503.778772,-9.0,155.0,-1377.0
1772222503.772374,-10.0,155.0,-1376.0
1772222503.7803738,-10.0,154.0,-1375.0
1772222503.7744455,-10.0,154.0,-1376.0
1772222503.7824454,-12.0,155.0,-1376.0
1772222503.7760365,-11.0,154.0,-1377.0
1772222503.7840364,-11.0,154.0,-1375.0
1772222503.7778187,-10.0,154.0,-1377.0
1772222503.7858186,-10.0,155.0,-1376.0
1772222503.7788424,-10.0,155.0,-1374.0
1772222503.7868423,-10.0,155.0,-1375.0
1772222503.7818735,-10.0,154.0,-1375.0
1772222503.7898734,-11.0,155.0,-1375.0
1772222503.7828803,-11.0,155.0,-1377.0
1772222503.7908802,-10.0,154.0,-1376.0
1772222503.7859042,-8.0,156.0,-1374.0
1772222503.793904,-9.0,155.0,-1372.0
1772222503.7883964,-11.0,155.0,-1374.0
1772222503.7963963,-11.0,154.0,-1375.0
1772222503.7899153,-10.0,155.0,-1377.0
1772222503.7979152,-9.0,155.0,-1376.0
1772222503.7944767,-10.0,154.0,-1376.0
1772222503.8024766,-10.0,155.0,-1375.0
1772222503.798402,-10.0,154.0,-1375.0
1772222503.806402,-11.0,155.0,-1374.0
1772222503.8012478,-11.0,154.0,-1373.0
1772222503.8092477,-10.0,154.0,-1375.0
1772222503.821225,-11.0,155.0,-1374.0
1772222503.8292248,-10.0,154.0,-1374.0
1772222503.8232157,-10.0,155.0,-1376.0
1772222503.8312156,-11.0,154.0,-1376.0
1772222503.8898501,-10.0,155.0,-1374.0
1772222503.89785,-10.0,154.0,-1375.0
1772222503.9185262,-10.0,155.0,-1376.0
1772222503.926526,-11.0,154.0,-1376.0
1772222503.920021,-11.0,154.0,-1374.0
1772222503.928021,-11.0,154.0,-1377.0
1772222503.9219327,-10.0,155.0,-1376.0
1772222503.9299326,-11.0,154.0,-1376.0
1772222503.923459,-12.0,155.0,-1376.0
1772222503.931459,-11.0,155.0,-1376.0
1772222503.9255035,-11.0,155.0,-1377.0
1772222503.9335034,-11.0,154.0,-1376.0
1772222503.9321415,-12.0,154.0,-1375.0
1772222503.9401414,-11.0,155.0,-1375.0
1772222503.9342165,-9.0,155.0,-1376.0
1772222503.9422164,-10.0,155.0,-1377.0
1772222503.9368937,-10.0,154.0,-1375.0
1772222503.9448936,-10.0,155.0,-1375.0
1772222503.938962,-10.0,155.0,-1377.0
1772222503.9469619,-10.0,155.0,-1378.0
1772222503.9415333,-10.0,154.0,-1377.0
1772222503.9495332,-10.0,155.0,-1375.0
1772222503.9770236,-10.0,156.0,-1375.0
1772222503.9850235,-10.0,156.0,-1375.0
1772222503.9786716,-11.0,155.0,-1375.0
1772222503.9866714,-11.0,154.0,-1374.0
1772222503.980737,-11.0,153.0,-1374.0
1772222503.9887369,-12.0,153.0,-1377.0
1772222504.0104182,-12.0,154.0,-1376.0
1772222504.018418,-12.0,154.0,-1374.0
1772222504.013653,-12.0,153.0,-1373.0
1772222504.021653,-11.0,153.0,-1371.0
1772222504.0376408,-13.0,153.0,-1372.0
1772222504.0456407,-12.0,152.0,-1378.0
1772222504.0396848,-12.0,153.0,-1375.0
1772222504.0476847,-13.0,154.0,-1377.0
1772222504.041193,-13.0,153.0,-1377.0
1772222504.049193,-13.0,153.0,-1376.0
1772222504.042636,-13.0,152.0,-1373.0
1772222504.0506358,-12.0,152.0,-1375.0
1772222504.0474348,-13.0,153.0,-1377.0
1772222504.0554347,-13.0,153.0,-1379.0
1772222504.0498354,-13.0,153.0,-1377.0
1772222504.0578353,-12.0,153.0,-1376.0
1772222504.0508516,-12.0,154.0,-1377.0
1772222504.0588515,-13.0,154.0,-1376.0
1772222504.0539074,-13.0,154.0,-1374.0
1772222504.0619073,-12.0,154.0,-1375.0
1772222504.0554652,-14.0,153.0,-1375.0
1772222504.063465,-13.0,153.0,-1374.0
1772222504.0585349,-13.0,153.0,-1376.0
1772222504.0665348,-13.0,152.0,-1375.0
1772222504.0939083,-13.0,153.0,-1374.0
1772222504.1019082,-13.0,153.0,-1374.0
1772222504.096256,-13.0,152.0,-1374.0
1772222504.104256,-13.0,153.0,-1375.0
1772222504.104676,-14.0,153.0,-1377.0
1772222504.112676,-13.0,153.0,-1377.0
1772222504.1229692,-13.0,153.0,-1377.0
1772222504.130969,-14.0,153.0,-1375.0
1772222504.1249723,-14.0,153.0,-1376.0
1772222504.1329722,-14.0,152.0,-1377.0
1772222504.1516292,-13.0,152.0,-1378.0
1772222504.159629,-14.0,152.0,-1376.0
1772222504.1536298,-14.0,152.0,-1376.0
1772222504.1616297,-13.0,153.0,-1378.0
1772222504.1552396,-13.0,153.0,-1378.0
1772222504.1632395,-13.0,153.0,-1378.0
1772222504.1567762,-13.0,154.0,-1378.0
1772222504.164776,-13.0,153.0,-1378.0
1772222504.1577966,-13.0,153.0,-1378.0
1772222504.1657965,-13.0,153.0,-1377.0
1772222504.1618314,-12.0,154.0,-1376.0
1772222504.1698313,-12.0,154.0,-1377.0
1772222504.1663413,-13.0,153.0,-1376.0
1772222504.1743412,-12.0,154.0,-1376.0
1772222504.1683853,-14.0,153.0,-1376.0
1772222504.1763852,-14.0,153.0,-1376.0
1772222504.170245,-13.0,153.0,-1377.0
1772222504.1782448,-13.0,154.0,-1376.0
1772222504.1730752,-13.0,153.0,-1375.0
1772222504.181075,-13.0,154.0,-1376.0
1772222504.1755772,-14.0,154.0,-1377.0
1772222504.183577,-13.0,153.0,-1375.0
1772222504.1776426,-12.0,154.0,-1375.0
1772222504.1856425,-12.0,154.0,-1377.0
1772222504.1811996,-13.0,154.0,-1376.0
1772222504.1891994,-13.0,154.0,-1376.0
1772222504.2228878,-14.0,154.0,-1377.0
1772222504.2308877,-13.0,153.0,-1378.0
1772222504.2399552,-14.0,153.0,-1379.0
1772222504.247955,-14.0,153.0,-1377.0
1772222504.2650144,-14.0,153.0,-1378.0
1772222504.2730143,-14.0,153.0,-1378.0
1772222504.2786055,-14.0,154.0,-1380.0
1772222504.2866054,-14.0,153.0,-1378.0
1772222504.3076005,-14.0,152.0,-1376.0
1772222504.3156004,-13.0,153.0,-1378.0
1772222504.30859,-14.0,154.0,-1378.0
1772222504.3165898,-14.0,153.0,-1374.0
1772222504.3118246,-13.0,153.0,-1372.0
1772222504.3198245,-12.0,155.0,-1374.0
1772222504.3133912,-12.0,153.0,-1374.0
1772222504.321391,-15.0,151.0,-1372.0
1772222504.315451,-17.0,150.0,-1372.0
1772222504.3234508,-19.0,149.0,-1374.0
1772222504.3170607,-19.0,147.0,-1376.0
1772222504.3250606,-19.0,146.0,-1376.0
1772222504.319123,-20.0,146.0,-1378.0
1772222504.327123,-21.0,147.0,-1381.0
1772222504.3207598,-21.0,147.0,-1379.0
1772222504.3287597,-20.0,147.0,-1380.0
1772222504.3225892,-20.0,147.0,-1381.0
1772222504.330589,-20.0,145.0,-1380.0
1772222504.324188,-19.0,147.0,-1380.0
1772222504.332188,-21.0,146.0,-1379.0
1772222504.3256578,-21.0,146.0,-1378.0
1772222504.3336577,-21.0,146.0,-1379.0
1772222504.3275998,-21.0,146.0,-1378.0
1772222504.3355997,-20.0,146.0,-1377.0
1772222504.3300667,-21.0,146.0,-1378.0
1772222504.3380666,-20.0,147.0,-1378.0
1772222504.3311026,-20.0,147.0,-1376.0
1772222504.3391025,-20.0,147.0,-1377.0
1772222504.3333817,-20.0,146.0,-1377.0
1772222504.3413815,-21.0,146.0,-1375.0
1772222504.3354537,-20.0,146.0,-1376.0
1772222504.3434536,-20.0,145.0,-1377.0
1772222504.3372042,-20.0,147.0,-1378.0
1772222504.345204,-21.0,146.0,-1377.0
1772222504.3387754,-21.0,146.0,-1376.0
1772222504.3467753,-20.0,147.0,-1376.0
1772222504.3404417,-20.0,147.0,-1376.0
1772222504.3484416,-21.0,147.0,-1376.0
1772222504.342515,-20.0,147.0,-1376.0
1772222504.350515,-19.0,146.0,-1377.0
1772222504.3441148,-19.0,147.0,-1377.0
1772222504.3521147,-19.0,147.0,-1376.0
1772222504.3458161,-20.0,147.0,-1373.0
1772222504.353816,-20.0,147.0,-1374.0
1772222504.347851,-19.0,147.0,-1376.0
1772222504.355851,-20.0,146.0,-1376.0
1772222504.3488874,-21.0,146.0,-1376.0
1772222504.3568873,-22.0,146.0,-1378.0
1772222504.3509283,-21.0,145.0,-1377.0
1772222504.3589282,-20.0,146.0,-1377.0
1772222504.3526263,-20.0,146.0,-1375.0
1772222504.3606262,-20.0,147.0,-1376.0
1772222504.3542905,-20.0,147.0,-1376.0
1772222504.3622904,-20.0,147.0,-1375.0
1772222504.3557096,-21.0,146.0,-1375.0
1772222504.3637094,-21.0,146.0,-1377.0
1772222504.3573713,-22.0,147.0,-1381.0
1772222504.3653712,-21.0,146.0,-1378.0
1772222504.358937,-20.0,146.0,-1377.0
1772222504.366937,-22.0,146.0,-1377.0
1772222504.3609898,-21.0,147.0,-1378.0
1772222504.3689897,-20.0,146.0,-1377.0
1772222504.3625603,-20.0,146.0,-1377.0
1772222504.3705602,-21.0,146.0,-1377.0
1772222504.36416,-21.0,146.0,-1377.0
1772222504.37216,-21.0,146.0,-1376.0
1772222504.3661876,-21.0,146.0,-1375.0
1772222504.3741875,-21.0,146.0,-1378.0
1772222504.3678176,-21.0,146.0,-1378.0
1772222504.3758175,-21.0,146.0,-1378.0
1772222504.3702476,-21.0,146.0,-1378.0
1772222504.3782475,-21.0,146.0,-1378.0
1772222504.3717918,-20.0,147.0,-1378.0
1772222504.3797917,-20.0,148.0,-1378.0
1772222504.373377,-19.0,148.0,-1377.0
1772222504.381377,-20.0,147.0,-1377.0
1772222504.3748827,-20.0,147.0,-1378.0
1772222504.3828826,-20.0,147.0,-1377.0
1772222504.376501,-20.0,147.0,-1378.0
1772222504.384501,-20.0,147.0,-1377.0
1772222504.378671,-19.0,147.0,-1377.0
1772222504.3866708,-20.0,147.0,-1376.0
1772222504.3800838,-21.0,147.0,-1377.0
1772222504.3880837,-20.0,147.0,-1379.0
1772222504.382133,-21.0,146.0,-1378.0
1772222504.390133,-20.0,147.0,-1378.0
1772222504.3841882,-21.0,147.0,-1377.0
1772222504.392188,-21.0,146.0,-1376.0
1772222504.3863628,-21.0,147.0,-1375.0
1772222504.3943627,-21.0,146.0,-1373.0
1772222504.3881452,-21.0,147.0,-1374.0
1772222504.396145,-20.0,147.0,-1375.0
1772222504.3897507,-20.0,147.0,-1375.0
1772222504.3977506,-21.0,146.0,-1378.0
1772222504.3911905,-21.0,146.0,-1376.0
1772222504.3991904,-21.0,147.0,-1376.0
1772222504.3932009,-22.0,146.0,-1376.0
1772222504.4012008,-22.0,145.0,-1376.0
1772222504.394765,-20.0,147.0,-1375.0
1772222504.4027648,-20.0,149.0,-1375.0
1772222504.396813,-23.0,149.0,-1377.0
1772222504.4048128,-21.0,147.0,-1377.0
1772222504.398478,-18.0,148.0,-1379.0
1772222504.406478,-15.0,150.0,-1377.0
1772222504.4005318,-14.0,151.0,-1377.0
1772222504.4085317,-13.0,153.0,-1378.0
1772222504.401529,-10.0,154.0,-1380.0
1772222504.409529,-8.0,156.0,-1379.0
1772222504.4038615,-6.0,158.0,-1378.0
1772222504.4118614,-5.0,158.0,-1377.0
1772222504.4053936,-4.0,160.0,-1376.0
1772222504.4133935,-6.0,160.0,-1375.0
1772222504.4070427,-5.0,160.0,-1376.0
1772222504.4150426,-5.0,160.0,-1376.0
1772222504.4085667,-5.0,160.0,-1374.0
1772222504.4165666,-6.0,159.0,-1374.0
1772222504.4102194,-6.0,159.0,-1374.0
1772222504.4182193,-8.0,159.0,-1375.0
1772222504.4116244,-9.0,159.0,-1378.0
1772222504.4196243,-9.0,159.0,-1378.0
1772222504.4134731,-10.0,158.0,-1376.0
1772222504.421473,-10.0,158.0,-1378.0
1772222504.4155252,-9.0,158.0,-1380.0
1772222504.423525,-10.0,158.0,-1380.0
1772222504.4167516,-11.0,158.0,-1378.0
1772222504.4247515,-11.0,158.0,-1378.0
1772222504.4183145,-11.0,157.0,-1379.0
1772222504.4263144,-11.0,157.0,-1379.0
1772222504.4203503,-11.0,157.0,-1379.0
1772222504.4283502,-11.0,157.0,-1380.0
1772222504.4224386,-11.0,158.0,-1379.0
1772222504.4304385,-11.0,158.0,-1379.0
1772222504.4239964,-11.0,158.0,-1380.0
1772222504.4319963,-10.0,158.0,-1378.0
1772222504.42558,-10.0,158.0,-1378.0
1772222504.43358,-10.0,158.0,-1380.0
1772222504.4272573,-10.0,158.0,-1379.0
1772222504.4352572,-10.0,158.0,-1378.0
1772222504.428896,-9.0,159.0,-1378.0
1772222504.4368958,-11.0,158.0,-1377.0
1772222504.4310029,-12.0,159.0,-1377.0
1772222504.4390028,-10.0,159.0,-1378.0
1772222504.4328942,-10.0,160.0,-1378.0
1772222504.4408941,-10.0,160.0,-1379.0
1772222504.4350674,-9.0,161.0,-1378.0
1772222504.4430673,-10.0,159.0,-1378.0
1772222504.4367132,-9.0,159.0,-1376.0
1772222504.444713,-9.0,160.0,-1374.0
1772222504.4386787,-9.0,160.0,-1377.0
1772222504.4466786,-10.0,159.0,-1377.0
1772222504.440296,-10.0,159.0,-1375.0
1772222504.4482958,-9.0,159.0,-1374.0
1772222504.4418974,-8.0,159.0,-1374.0
1772222504.4498973,-11.0,159.0,-1372.0
1772222504.4434884,-10.0,159.0,-1373.0
1772222504.4514883,-9.0,161.0,-1374.0
1772222504.4449182,-10.0,159.0,-1379.0
1772222504.452918,-11.0,158.0,-1380.0
1772222504.4467573,-12.0,159.0,-1379.0
1772222504.4547572,-12.0,158.0,-1380.0
1772222504.4488206,-12.0,158.0,-1381.0
1772222504.4568205,-12.0,158.0,-1379.0
1772222504.4504511,-11.0,158.0,-1380.0
1772222504.458451,-11.0,158.0,-1380.0
1772222504.452208,-10.0,159.0,-1380.0
1772222504.460208,-11.0,159.0,-1380.0
1772222504.4539292,-11.0,158.0,-1380.0
1772222504.461929,-10.0,158.0,-1378.0
1772222504.4555147,-11.0,159.0,-1379.0
1772222504.4635146,-13.0,158.0,-1378.0
1772222504.4571364,-13.0,157.0,-1378.0
1772222504.4651363,-13.0,157.0,-1381.0
1772222504.4591699,-13.0,157.0,-1382.0
1772222504.4671698,-12.0,157.0,-1380.0
1772222504.4606156,-12.0,157.0,-1380.0
1772222504.4686155,-11.0,158.0,-1379.0
1772222504.4616592,-11.0,158.0,-1380.0
1772222504.469659,-10.0,158.0,-1379.0
1772222504.464002,-11.0,157.0,-1379.0
1772222504.4720018,-12.0,157.0,-1379.0
1772222504.4660757,-12.0,157.0,-1379.0
1772222504.4740756,-11.0,156.0,-1379.0
1772222504.4676056,-13.0,156.0,-1379.0
1772222504.4756055,-12.0,157.0,-1378.0
1772222504.4694765,-11.0,157.0,-1380.0
1772222504.4774764,-12.0,156.0,-1379.0
1772222504.4710457,-12.0,156.0,-1379.0
1772222504.4790456,-11.0,157.0,-1380.0
1772222504.4726815,-12.0,157.0,-1378.0
1772222504.4806814,-13.0,158.0,-1379.0
1772222504.4747484,-12.0,157.0,-1379.0
1772222504.4827483,-11.0,157.0,-1378.0
1772222504.4768898,-11.0,157.0,-1376.0
1772222504.4848897,-12.0,157.0,-1376.0
1772222504.4778993,-13.0,156.0,-1377.0
1772222504.4858992,-12.0,156.0,-1378.0
1772222504.4802735,-11.0,156.0,-1376.0
1772222504.4882734,-13.0,156.0,-1377.0
1772222504.481806,-12.0,156.0,-1377.0
1772222504.489806,-12.0,156.0,-1379.0
1772222504.4834182,-13.0,156.0,-1378.0
1772222504.4914181,-12.0,157.0,-1379.0
1772222504.4854436,-12.0,157.0,-1379.0
1772222504.4934435,-11.0,157.0,-1380.0
1772222504.486447,-11.0,157.0,-1380.0
1772222504.494447,-12.0,157.0,-1379.0
1772222504.4882896,-12.0,156.0,-1380.0
1772222504.4962895,-12.0,155.0,-1380.0
1772222504.4903374,-12.0,156.0,-1378.0
1772222504.4983373,-13.0,155.0,-1377.0
1772222504.4918952,-13.0,155.0,-1380.0
1772222504.499895,-13.0,155.0,-1380.0
1772222504.4931986,-13.0,155.0,-1378.0
1772222504.5011985,-12.0,156.0,-1378.0
1772222504.4952574,-12.0,156.0,-1382.0
1772222504.5032573,-12.0,156.0,-1380.0
1772222504.496806,-12.0,156.0,-1379.0
1772222504.5048058,-11.0,155.0,-1381.0
1772222504.4998434,-12.0,156.0,-1381.0
1772222504.5078433,-13.0,156.0,-1381.0
1772222504.504086,-12.0,156.0,-1381.0
1772222504.512086,-12.0,156.0,-1382.0
1772222504.5058453,-13.0,156.0,-1383.0
1772222504.5138452,-13.0,156.0,-1381.0
1772222504.5077298,-12.0,156.0,-1382.0
1772222504.5157297,-12.0,156.0,-1381.0
1772222504.5098538,-11.0,157.0,-1383.0
1772222504.5178537,-10.0,157.0,-1383.0
1772222504.5110598,-11.0,157.0,-1382.0
1772222504.5190597,-12.0,156.0,-1380.0
1772222504.513096,-11.0,157.0,-1381.0
1772222504.521096,-11.0,156.0,-1379.0
1772222504.51481,-12.0,156.0,-1380.0
1772222504.52281,-12.0,156.0,-1379.0
1772222504.5166025,-12.0,156.0,-1380.0
1772222504.5246024,-11.0,156.0,-1380.0
1772222504.518803,-12.0,157.0,-1380.0
1772222504.5268028,-12.0,156.0,-1378.0
1772222504.5203896,-12.0,156.0,-1380.0
1772222504.5283895,-10.0,157.0,-1382.0
1772222504.5219946,-12.0,157.0,-1380.0
1772222504.5299945,-11.0,157.0,-1380.0
1772222504.5234573,-11.0,157.0,-1383.0
1772222504.5314572,-12.0,157.0,-1382.0
1772222504.525152,-11.0,156.0,-1382.0
1772222504.5331519,-12.0,156.0,-1383.0
1772222504.527211,-13.0,156.0,-1381.0
1772222504.5352108,-12.0,156.0,-1382.0
1772222504.5287802,-11.0,156.0,-1382.0
1772222504.53678,-12.0,155.0,-1380.0
1772222504.5305572,-11.0,156.0,-1380.0
1772222504.538557,-11.0,157.0,-1382.0
1772222504.5321975,-11.0,157.0,-1379.0
1772222504.5401974,-11.0,157.0,-1378.0
1772222504.5336242,-11.0,156.0,-1379.0
1772222504.541624,-12.0,156.0,-1379.0
1772222504.5352502,-12.0,156.0,-1380.0
1772222504.54325,-11.0,157.0,-1380.0
1772222504.5368114,-11.0,157.0,-1381.0
1772222504.5448112,-11.0,156.0,-1380.0
1772222504.5383852,-13.0,156.0,-1380.0
1772222504.546385,-12.0,156.0,-1378.0
1772222504.539969,-12.0,156.0,-1381.0
1772222504.5479689,-12.0,156.0,-1380.0
1772222504.5420396,-14.0,155.0,-1379.0
1772222504.5500395,-13.0,156.0,-1383.0
1772222504.5438912,-13.0,155.0,-1382.0
1772222504.551891,-13.0,156.0,-1382.0
1772222504.54526,-12.0,157.0,-1382.0
1772222504.5532598,-12.0,155.0,-1381.0
1772222504.5468314,-13.0,155.0,-1378.0
1772222504.5548313,-15.0,154.0,-1381.0
1772222504.548913,-13.0,155.0,-1381.0
1772222504.556913,-14.0,155.0,-1381.0
1772222504.550498,-13.0,155.0,-1381.0
1772222504.558498,-13.0,155.0,-1380.0
1772222504.5520315,-14.0,155.0,-1381.0
1772222504.5600314,-15.0,153.0,-1380.0
1772222504.5535846,-14.0,154.0,-1380.0
1772222504.5615845,-13.0,155.0,-1379.0
1772222504.5556445,-14.0,158.0,-1379.0
1772222504.5636444,-16.0,154.0,-1380.0
1772222504.5571978,-10.0,156.0,-1380.0
1772222504.5651977,-8.0,159.0,-1381.0
1772222504.5588255,-5.0,161.0,-1381.0
1772222504.5668254,-3.0,163.0,-1381.0
1772222504.560867,1.0,166.0,-1380.0
1772222504.568867,6.0,169.0,-1381.0
1772222504.5624225,9.0,171.0,-1381.0
1772222504.5704224,13.0,175.0,-1382.0
1772222504.5639265,17.0,180.0,-1379.0
1772222504.5719264,20.0,181.0,-1377.0
1772222504.5659924,22.0,184.0,-1381.0
1772222504.5739923,25.0,186.0,-1379.0
1772222504.5676155,27.0,189.0,-1380.0
1772222504.5756154,30.0,191.0,-1377.0
1772222504.5691814,33.0,195.0,-1375.0
1772222504.5771813,35.0,195.0,-1376.0
1772222504.5708835,36.0,197.0,-1377.0
1772222504.5788834,38.0,198.0,-1378.0
1772222504.5724454,39.0,201.0,-1379.0
1772222504.5804453,42.0,201.0,-1380.0
1772222504.5742488,44.0,201.0,-1383.0
1772222504.5822487,44.0,201.0,-1383.0
1772222504.5761828,43.0,200.0,-1381.0
1772222504.5841827,44.0,201.0,-1383.0
1772222504.5785134,43.0,201.0,-1384.0
1772222504.5865133,42.0,201.0,-1382.0
1772222504.5800629,41.0,200.0,-1382.0
1772222504.5880628,40.0,199.0,-1381.0
1772222504.5811024,38.0,199.0,-1382.0
1772222504.5891023,36.0,197.0,-1381.0
1772222504.5831378,34.0,196.0,-1383.0
1772222504.5911376,34.0,197.0,-1381.0
1772222504.584694,31.0,195.0,-1379.0
1772222504.5926938,30.0,194.0,-1382.0
1772222504.5859911,27.0,194.0,-1382.0
1772222504.593991,28.0,193.0,-1382.0
1772222504.588048,27.0,192.0,-1381.0
1772222504.5960479,24.0,191.0,-1384.0
1772222504.590335,22.0,191.0,-1384.0
1772222504.5983348,21.0,191.0,-1383.0
1772222504.5923865,20.0,191.0,-1382.0
1772222504.6003864,20.0,189.0,-1381.0
1772222504.5943587,19.0,189.0,-1384.0
1772222504.6023586,18.0,188.0,-1383.0
1772222504.5960808,15.0,187.0,-1383.0
1772222504.6040807,14.0,186.0,-1384.0
1772222504.597618,14.0,186.0,-1383.0
1772222504.605618,14.0,186.0,-1382.0
1772222504.598637,13.0,185.0,-1381.0
1772222504.606637,11.0,184.0,-1382.0
1772222504.600682,10.0,183.0,-1380.0
1772222504.608682,11.0,184.0,-1380.0
1772222504.601759,10.0,183.0,-1381.0
1772222504.6097589,9.0,183.0,-1381.0
1772222504.603792,9.0,183.0,-1381.0
1772222504.6117918,9.0,183.0,-1381.0
1772222504.6058884,8.0,183.0,-1381.0
1772222504.6138883,8.0,183.0,-1382.0
1772222504.607519,7.0,182.0,-1382.0
1772222504.6155188,8.0,182.0,-1383.0
1772222504.6089587,7.0,181.0,-1381.0
1772222504.6169586,6.0,182.0,-1380.0
1772222504.610689,5.0,181.0,-1383.0
1772222504.6186888,5.0,180.0,-1382.0
1772222504.6127641,5.0,180.0,-1380.0
1772222504.620764,5.0,179.0,-1384.0
1772222504.6143367,5.0,179.0,-1384.0
1772222504.6223366,4.0,179.0,-1382.0
1772222504.6167605,4.0,180.0,-1381.0
1772222504.6247604,4.0,179.0,-1379.0
1772222504.6183777,4.0,179.0,-1380.0
1772222504.6263776,4.0,179.0,-1379.0
1772222504.620062,4.0,179.0,-1379.0
1772222504.628062,4.0,180.0,-1379.0
1772222504.6216059,4.0,181.0,-1381.0
1772222504.6296058,4.0,181.0,-1380.0
1772222504.6231825,4.0,179.0,-1378.0
1772222504.6311824,7.0,181.0,-1379.0
1772222504.6248317,8.0,184.0,-1380.0
1772222504.6328316,10.0,185.0,-1381.0
1772222504.6262474,12.0,186.0,-1382.0
1772222504.6342473,11.0,187.0,-1380.0
1772222504.6284091,13.0,188.0,-1381.0
1772222504.636409,12.0,189.0,-1384.0
1772222504.6299527,10.0,188.0,-1383.0
1772222504.6379526,9.0,188.0,-1382.0
1772222504.6320636,10.0,188.0,-1383.0
1772222504.6400635,10.0,188.0,-1383.0
1772222504.6337867,10.0,187.0,-1382.0
1772222504.6417866,8.0,187.0,-1383.0
1772222504.6354141,8.0,187.0,-1380.0
1772222504.643414,7.0,187.0,-1380.0
1772222504.6374695,8.0,187.0,-1381.0
1772222504.6454694,8.0,187.0,-1379.0
1772222504.6389987,8.0,187.0,-1381.0
1772222504.6469986,7.0,186.0,-1381.0
1772222504.640632,6.0,187.0,-1381.0
1772222504.6486318,6.0,187.0,-1381.0
1772222504.6426945,6.0,187.0,-1381.0
1772222504.6506944,6.0,187.0,-1383.0
1772222504.6447406,5.0,186.0,-1383.0
1772222504.6527405,6.0,186.0,-1381.0
1772222504.647103,6.0,186.0,-1380.0
1772222504.655103,5.0,185.0,-1381.0
1772222504.648661,4.0,186.0,-1381.0
1772222504.6566608,3.0,185.0,-1381.0
1772222504.6501682,4.0,186.0,-1380.0
1772222504.658168,5.0,186.0,-1382.0
1772222504.6516888,5.0,185.0,-1381.0
1772222504.6596887,4.0,185.0,-1382.0
1772222504.6533208,3.0,185.0,-1381.0
1772222504.6613207,3.0,185.0,-1381.0
1772222504.6554654,3.0,184.0,-1380.0
1772222504.6634653,3.0,184.0,-1381.0
1772222504.657088,3.0,184.0,-1380.0
1772222504.665088,2.0,184.0,-1379.0
1772222504.6591375,2.0,183.0,-1381.0
1772222504.6671374,3.0,183.0,-1381.0
1772222504.6608522,2.0,184.0,-1379.0
1772222504.668852,1.0,183.0,-1382.0
1772222504.6618903,2.0,183.0,-1384.0
1772222504.6698902,1.0,183.0,-1384.0
1772222504.6639163,1.0,183.0,-1384.0
1772222504.6719162,1.0,182.0,-1384.0
1772222504.6656713,0.0,182.0,-1384.0
1772222504.6736712,1.0,181.0,-1383.0
1772222504.6673357,0.0,180.0,-1382.0
1772222504.6753356,0.0,181.0,-1383.0
1772222504.669333,-1.0,181.0,-1384.0
1772222504.6773329,0.0,180.0,-1384.0
1772222504.6710346,-1.0,180.0,-1385.0
1772222504.6790345,-1.0,181.0,-1385.0
1772222504.672395,1.0,181.0,-1387.0
1772222504.680395,1.0,181.0,-1386.0
1772222504.6740453,1.0,181.0,-1384.0
1772222504.6820452,0.0,180.0,-1383.0
1772222504.675842,0.0,181.0,-1385.0
1772222504.683842,0.0,180.0,-1385.0
1772222504.6788974,0.0,180.0,-1386.0
1772222504.6868973,-1.0,181.0,-1385.0
1772222504.6870184,1.0,181.0,-1384.0
1772222504.6950183,-2.0,181.0,-1384.0
1772222504.6933527,-2.0,180.0,-1386.0
1772222504.7013526,-1.0,180.0,-1384.0
1772222504.6956022,-1.0,181.0,-1385.0
1772222504.703602,0.0,181.0,-1384.0
1772222504.707648,-1.0,181.0,-1384.0
1772222504.715648,0.0,181.0,-1384.0
1772222504.7146475,0.0,181.0,-1384.0
1772222504.7226474,1.0,181.0,-1385.0
1772222504.7509143,-1.0,181.0,-1384.0
1772222504.7589142,-1.0,181.0,-1382.0
1772222504.7866848,0.0,181.0,-1380.0
1772222504.7946846,0.0,181.0,-1383.0
1772222504.7977295,-1.0,181.0,-1385.0
1772222504.8057294,1.0,181.0,-1382.0
1772222504.8207164,2.0,183.0,-1379.0
1772222504.8287163,2.0,183.0,-1380.0
1772222504.823711,2.0,182.0,-1380.0
1772222504.8317108,3.0,183.0,-1379.0
1772222504.8255775,3.0,184.0,-1380.0
1772222504.8335774,3.0,184.0,-1383.0
1772222504.8276286,3.0,184.0,-1385.0
1772222504.8356285,2.0,184.0,-1386.0
1772222504.832105,2.0,183.0,-1385.0
1772222504.8401048,2.0,183.0,-1385.0
1772222504.8343325,1.0,183.0,-1384.0
1772222504.8423324,2.0,183.0,-1382.0
1772222504.836253,2.0,182.0,-1384.0
1772222504.8442528,2.0,184.0,-1385.0
1772222504.8387103,2.0,183.0,-1382.0
1772222504.8467102,3.0,183.0,-1382.0
1772222504.8442316,4.0,183.0,-1381.0
1772222504.8522315,3.0,183.0,-1381.0
1772222504.8476598,3.0,183.0,-1381.0
1772222504.8556597,3.0,184.0,-1384.0
1772222504.8525317,2.0,184.0,-1383.0
1772222504.8605316,3.0,185.0,-1382.0
1772222504.8555927,4.0,184.0,-1382.0
1772222504.8635926,4.0,184.0,-1380.0
1772222504.858937,4.0,184.0,-1381.0
1772222504.866937,4.0,185.0,-1381.0
1772222504.8639414,4.0,185.0,-1383.0
1772222504.8719413,5.0,185.0,-1382.0
1772222504.8656216,5.0,185.0,-1383.0
1772222504.8736215,6.0,187.0,-1382.0
1772222504.869231,5.0,185.0,-1382.0
1772222504.877231,2.0,182.0,-1383.0
1772222504.8738663,1.0,180.0,-1384.0
1772222504.8818662,0.0,179.0,-1385.0
1772222504.8755546,-2.0,177.0,-1384.0
1772222504.8835545,-3.0,174.0,-1385.0
1772222504.878763,-5.0,171.0,-1383.0
1772222504.8867629,-6.0,170.0,-1381.0
1772222504.8797927,-7.0,169.0,-1383.0
1772222504.8877926,-9.0,167.0,-1382.0
1772222504.8818266,-10.0,165.0,-1380.0
1772222504.8898265,-11.0,163.0,-1386.0
1772222504.8871253,-12.0,161.0,-1383.0
1772222504.8951252,-12.0,160.0,-1387.0
1772222504.8884265,-14.0,159.0,-1382.0
1772222504.8964264,-15.0,157.0,-1382.0
1772222504.8911371,-16.0,155.0,-1386.0
1772222504.899137,-17.0,155.0,-1385.0
1772222504.8961816,-18.0,152.0,-1384.0
1772222504.9041815,-21.0,150.0,-1383.0
1772222504.89942,-22.0,148.0,-1385.0
1772222504.90742,-24.0,146.0,-1385.0
1772222504.9021049,-26.0,145.0,-1385.0
1772222504.9101048,-27.0,143.0,-1385.0
1772222504.906181,-30.0,141.0,-1383.0
1772222504.914181,-31.0,139.0,-1384.0
1772222504.909195,-32.0,138.0,-1384.0
1772222504.9171948,-34.0,137.0,-1382.0
1772222504.9117866,-35.0,135.0,-1382.0
1772222504.9197865,-37.0,134.0,-1383.0
1772222504.916336,-39.0,133.0,-1384.0
1772222504.924336,-41.0,132.0,-1383.0
1772222504.918851,-41.0,130.0,-1384.0
1772222504.9268508,-41.0,130.0,-1383.0
1772222504.921922,-42.0,130.0,-1383.0
1772222504.9299219,-43.0,128.0,-1382.0
1772222504.9254773,-43.0,129.0,-1380.0
1772222504.9334772,-43.0,129.0,-1385.0
1772222504.9310317,-43.0,129.0,-1385.0
1772222504.9390316,-43.0,130.0,-1385.0
1772222504.9332063,-42.0,130.0,-1383.0
1772222504.9412062,-43.0,130.0,-1383.0
1772222504.941243,-42.0,131.0,-1384.0
1772222504.9492428,-42.0,132.0,-1386.0
1772222504.9437602,-41.0,132.0,-1384.0
1772222504.95176,-41.0,132.0,-1385.0
1772222504.948518,-41.0,132.0,-1385.0
1772222504.956518,-41.0,131.0,-1385.0
1772222504.951206,-42.0,132.0,-1384.0
1772222504.9592059,-41.0,132.0,-1385.0
1772222504.9531226,-40.0,133.0,-1385.0
1772222504.9611225,-41.0,133.0,-1386.0
1772222504.9582386,-42.0,131.0,-1382.0
1772222504.9662385,-41.0,132.0,-1383.0
1772222504.9612947,-41.0,133.0,-1383.0
1772222504.9692945,-42.0,132.0,-1382.0
1772222504.9628856,-40.0,131.0,-1383.0
1772222504.9708855,-40.0,133.0,-1384.0
1772222504.9648888,-41.0,133.0,-1384.0
1772222504.9728887,-42.0,133.0,-1384.0
1772222504.9669588,-42.0,132.0,-1386.0
1772222504.9749587,-41.0,132.0,-1385.0
1772222504.9685895,-40.0,133.0,-1385.0
1772222504.9765894,-41.0,133.0,-1385.0
1772222504.9705205,-41.0,133.0,-1385.0
1772222504.9785204,-41.0,133.0,-1384.0
1772222504.9719589,-39.0,133.0,-1384.0
1772222504.9799588,-40.0,133.0,-1386.0
1772222504.9740074,-40.0,134.0,-1386.0
1772222504.9820073,-41.0,134.0,-1386.0
1772222504.9761567,-40.0,135.0,-1385.0
1772222504.9841566,-40.0,135.0,-1385.0
1772222504.9787223,-40.0,134.0,-1387.0
1772222504.9867222,-39.0,135.0,-1386.0
1772222504.9808044,-37.0,136.0,-1385.0
1772222504.9888043,-37.0,138.0,-1386.0
1772222504.9827843,-40.0,136.0,-1386.0
1772222504.9907842,-38.0,136.0,-1384.0
1772222504.9843702,-37.0,136.0,-1383.0
1772222504.9923701,-36.0,137.0,-1383.0
1772222504.9864373,-36.0,137.0,-1379.0
1772222504.9944372,-35.0,138.0,-1381.0
1772222504.988071,-34.0,138.0,-1384.0
1772222504.9960709,-33.0,139.0,-1384.0
1772222504.9904993,-34.0,139.0,-1383.0
1772222504.9984992,-34.0,139.0,-1384.0
1772222504.9921713,-34.0,139.0,-1385.0
1772222505.0001712,-36.0,138.0,-1383.0
1772222504.99361,-36.0,138.0,-1384.0
1772222505.0016098,-34.0,139.0,-1383.0
1772222504.9978318,-35.0,139.0,-1381.0
1772222505.0058317,-34.0,140.0,-1382.0
1772222505.0016694,-34.0,140.0,-1386.0
1772222505.0096693,-33.0,140.0,-1384.0
1772222505.003738,-33.0,140.0,-1381.0
1772222505.0117378,-33.0,140.0,-1382.0
1772222505.0052998,-34.0,140.0,-1384.0
1772222505.0132997,-34.0,140.0,-1383.0
1772222505.0072985,-35.0,139.0,-1381.0
1772222505.0152984,-34.0,140.0,-1382.0
1772222505.0113628,-33.0,140.0,-1384.0
1772222505.0193627,-35.0,140.0,-1383.0
1772222505.0134583,-34.0,140.0,-1381.0
