# team: unknown
# label: peace_baseline-EOG
# timestamp: 20260227_145324
# sample_rate: 250
# samples: 16300
# duration_sec: 65.202
# channels: EOG1,EOG2,EMG3
#
timestamp,EOG1,EOG2,EMG3
1772221939.6996732,45.0,251.0,-1866.0
1772221939.707673,47.0,252.0,-1860.0
1772221939.706901,45.0,251.0,-1861.0
1772221939.714901,44.0,250.0,-1865.0
1772221939.7339373,44.0,249.0,-1866.0
1772221939.7419372,45.0,251.0,-1859.0
1772221939.7339373,45.0,249.0,-1856.0
1772221939.7419372,45.0,249.0,-1862.0
1772221939.7357156,46.0,250.0,-1864.0
1772221939.7437155,46.0,250.0,-1859.0
1772221939.7615433,47.0,250.0,-1857.0
1772221939.7695432,45.0,249.0,-1860.0
1772221939.7804794,43.0,249.0,-1864.0
1772221939.7884793,43.0,251.0,-1860.0
1772221939.781988,45.0,253.0,-1855.0
1772221939.7899878,47.0,252.0,-1858.0
1772221939.781988,46.0,255.0,-1862.0
1772221939.7899878,45.0,253.0,-1860.0
1772221939.782997,45.0,249.0,-1856.0
1772221939.7909968,46.0,249.0,-1857.0
1772221939.782997,47.0,249.0,-1862.0
1772221939.7909968,46.0,247.0,-1859.0
1772221939.7909076,44.0,250.0,-1852.0
1772221939.7989075,43.0,251.0,-1856.0
1772221939.7959921,43.0,250.0,-1860.0
1772221939.803992,45.0,250.0,-1861.0
1772221939.8017035,46.0,252.0,-1854.0
1772221939.8097034,46.0,252.0,-1852.0
1772221939.814808,45.0,251.0,-1857.0
1772221939.8228078,46.0,250.0,-1858.0
1772221939.8270395,45.0,251.0,-1852.0
1772221939.8350394,44.0,252.0,-1849.0
1772221939.8285644,46.0,251.0,-1856.0
1772221939.8365643,45.0,250.0,-1857.0
1772221939.83439,43.0,251.0,-1853.0
1772221939.8423898,44.0,253.0,-1850.0
1772221939.8432074,44.0,251.0,-1855.0
1772221939.8512073,42.0,249.0,-1858.0
1772221939.8520358,43.0,250.0,-1852.0
1772221939.8600357,44.0,250.0,-1849.0
1772221939.8842592,44.0,253.0,-1853.0
1772221939.8922591,44.0,253.0,-1856.0
1772221939.886849,45.0,250.0,-1852.0
1772221939.8948488,43.0,253.0,-1849.0
1772221939.8976073,43.0,253.0,-1850.0
1772221939.9056072,43.0,252.0,-1854.0
1772221939.8992946,43.0,251.0,-1852.0
1772221939.9072945,45.0,249.0,-1846.0
1772221939.9015622,45.0,249.0,-1849.0
1772221939.909562,43.0,250.0,-1853.0
1772221939.9208722,43.0,253.0,-1851.0
1772221939.928872,44.0,251.0,-1849.0
1772221939.9284382,43.0,249.0,-1847.0
1772221939.936438,42.0,249.0,-1852.0
1772221939.9284382,43.0,250.0,-1853.0
1772221939.936438,41.0,250.0,-1847.0
1772221939.929437,41.0,250.0,-1849.0
1772221939.9374368,40.0,249.0,-1853.0
1772221939.9308527,39.0,250.0,-1855.0
1772221939.9388525,40.0,252.0,-1851.0
1772221939.9397118,42.0,246.0,-1849.0
1772221939.9477117,41.0,248.0,-1854.0
1772221939.9454725,38.0,248.0,-1858.0
1772221939.9534724,36.0,245.0,-1854.0
1772221939.9666417,35.0,244.0,-1848.0
1772221939.9746416,36.0,243.0,-1852.0
1772221939.9737015,36.0,245.0,-1857.0
1772221939.9817014,34.0,246.0,-1854.0
1772221939.9737015,35.0,246.0,-1849.0
1772221939.9817014,31.0,243.0,-1852.0
1772221940.011795,30.0,241.0,-1858.0
1772221940.019795,31.0,242.0,-1855.0
1772221940.011795,31.0,239.0,-1851.0
1772221940.019795,27.0,237.0,-1853.0
1772221940.0229561,25.0,241.0,-1859.0
1772221940.030956,25.0,240.0,-1858.0
1772221940.023637,28.0,240.0,-1852.0
1772221940.031637,27.0,240.0,-1852.0
1772221940.0267968,27.0,240.0,-1859.0
1772221940.0347967,25.0,240.0,-1860.0
1772221940.0267968,23.0,237.0,-1855.0
1772221940.0347967,23.0,234.0,-1855.0
1772221940.0278046,23.0,231.0,-1859.0
1772221940.0358045,21.0,232.0,-1862.0
1772221940.036056,19.0,232.0,-1857.0
1772221940.044056,18.0,233.0,-1855.0
1772221940.055334,17.0,230.0,-1862.0
1772221940.063334,18.0,229.0,-1864.0
1772221940.063122,19.0,228.0,-1859.0
1772221940.071122,19.0,227.0,-1856.0
1772221940.063122,18.0,228.0,-1858.0
1772221940.071122,16.0,229.0,-1862.0
1772221940.0699499,16.0,230.0,-1859.0
1772221940.0779498,17.0,229.0,-1853.0
1772221940.0760696,20.0,229.0,-1857.0
1772221940.0840695,20.0,229.0,-1861.0
1772221940.0817425,19.0,230.0,-1861.0
1772221940.0897424,17.0,231.0,-1856.0
1772221940.1175618,18.0,232.0,-1855.0
1772221940.1255617,18.0,233.0,-1861.0
1772221940.1186638,17.0,233.0,-1861.0
1772221940.1266637,17.0,230.0,-1855.0
1772221940.1533406,19.0,231.0,-1853.0
1772221940.1613405,19.0,230.0,-1858.0
1772221940.1754,18.0,228.0,-1859.0
1772221940.1834,18.0,231.0,-1854.0
1772221940.1762567,19.0,232.0,-1852.0
1772221940.1842566,18.0,232.0,-1857.0
1772221940.1813564,18.0,233.0,-1858.0
1772221940.1893563,19.0,232.0,-1855.0
1772221940.1829863,19.0,230.0,-1851.0
1772221940.1909862,19.0,232.0,-1856.0
1772221940.1842551,19.0,231.0,-1858.0
1772221940.192255,21.0,232.0,-1853.0
1772221940.191953,20.0,234.0,-1851.0
1772221940.1999528,20.0,235.0,-1852.0
1772221940.2052398,20.0,236.0,-1856.0
1772221940.2132397,22.0,235.0,-1855.0
1772221940.2052398,23.0,237.0,-1850.0
1772221940.2132397,23.0,239.0,-1851.0
1772221940.2052398,21.0,237.0,-1855.0
1772221940.2132397,21.0,237.0,-1854.0
1772221940.206553,22.0,235.0,-1847.0
1772221940.2145529,24.0,235.0,-1846.0
1772221940.206553,26.0,236.0,-1849.0
1772221940.2145529,26.0,238.0,-1848.0
1772221940.2136638,27.0,240.0,-1841.0
1772221940.2216637,28.0,241.0,-1841.0
1772221940.2270005,29.0,243.0,-1845.0
1772221940.2350004,29.0,244.0,-1846.0
1772221940.2297432,29.0,242.0,-1842.0
1772221940.2377431,28.0,241.0,-1843.0
1772221940.249322,28.0,241.0,-1849.0
1772221940.2573218,28.0,241.0,-1851.0
1772221940.249322,29.0,244.0,-1846.0
1772221940.2573218,31.0,244.0,-1840.0
1772221940.249322,30.0,242.0,-1844.0
1772221940.2573218,29.0,241.0,-1849.0
1772221940.2565053,28.0,242.0,-1843.0
1772221940.2645051,28.0,244.0,-1839.0
1772221940.2580276,30.0,242.0,-1843.0
1772221940.2660275,31.0,241.0,-1847.0
1772221940.267254,31.0,243.0,-1844.0
1772221940.275254,29.0,244.0,-1838.0
1772221940.276519,30.0,243.0,-1841.0
1772221940.284519,29.0,243.0,-1845.0
1772221940.297471,29.0,244.0,-1843.0
1772221940.305471,30.0,245.0,-1839.0
1772221940.304738,32.0,245.0,-1839.0
1772221940.312738,31.0,243.0,-1844.0
1772221940.3057432,31.0,242.0,-1843.0
1772221940.313743,29.0,243.0,-1838.0
1772221940.3118265,28.0,242.0,-1837.0
1772221940.3198264,27.0,241.0,-1844.0
1772221940.3153849,27.0,242.0,-1843.0
1772221940.3233848,28.0,243.0,-1835.0
1772221940.3226097,30.0,241.0,-1836.0
1772221940.3306096,30.0,242.0,-1842.0
1772221940.35031,30.0,243.0,-1845.0
1772221940.35831,29.0,243.0,-1840.0
1772221940.3523476,28.0,243.0,-1837.0
1772221940.3603475,28.0,242.0,-1841.0
1772221940.3538778,29.0,242.0,-1845.0
1772221940.3618777,30.0,242.0,-1841.0
1772221940.3569062,31.0,242.0,-1837.0
1772221940.364906,30.0,243.0,-1840.0
1772221940.362043,30.0,243.0,-1844.0
1772221940.3700428,30.0,245.0,-1842.0
1772221940.387269,32.0,244.0,-1838.0
1772221940.395269,32.0,243.0,-1841.0
1772221940.3887901,30.0,242.0,-1846.0
1772221940.39679,30.0,243.0,-1844.0
1772221940.3887901,31.0,244.0,-1839.0
1772221940.39679,31.0,243.0,-1840.0
1772221940.3948414,30.0,244.0,-1845.0
1772221940.4028413,31.0,246.0,-1845.0
1772221940.4035761,31.0,245.0,-1840.0
1772221940.411576,31.0,244.0,-1840.0
1772221940.4118812,31.0,243.0,-1846.0
1772221940.419881,32.0,245.0,-1846.0
1772221940.4346018,31.0,245.0,-1841.0
1772221940.4426017,32.0,245.0,-1840.0
1772221940.4363244,33.0,245.0,-1846.0
1772221940.4443243,32.0,244.0,-1847.0
1772221940.4363244,32.0,245.0,-1844.0
1772221940.4443243,32.0,246.0,-1840.0
1772221940.4424884,32.0,246.0,-1845.0
1772221940.4504883,31.0,245.0,-1848.0
1772221940.4799263,31.0,245.0,-1845.0
1772221940.4879262,32.0,246.0,-1841.0
1772221940.4819484,31.0,247.0,-1845.0
1772221940.4899483,31.0,247.0,-1849.0
1772221940.4826546,31.0,245.0,-1845.0
1772221940.4906545,31.0,244.0,-1842.0
1772221940.4826546,30.0,245.0,-1845.0
1772221940.4906545,30.0,245.0,-1850.0
1772221940.4826546,32.0,247.0,-1847.0
1772221940.4906545,34.0,249.0,-1843.0
1772221940.490853,34.0,248.0,-1844.0
1772221940.498853,32.0,246.0,-1848.0
1772221940.4995735,32.0,248.0,-1848.0
1772221940.5075734,33.0,249.0,-1842.0
1772221940.5096135,35.0,247.0,-1843.0
1772221940.5176134,35.0,246.0,-1847.0
1772221940.5158045,33.0,248.0,-1850.0
1772221940.5238044,34.0,250.0,-1845.0
1772221940.523062,34.0,252.0,-1841.0
1772221940.531062,35.0,252.0,-1847.0
1772221940.5391455,35.0,250.0,-1850.0
1772221940.5471454,33.0,248.0,-1845.0
1772221940.5451958,34.0,249.0,-1841.0
1772221940.5531957,35.0,248.0,-1845.0
1772221940.5467613,35.0,250.0,-1848.0
1772221940.5547612,33.0,251.0,-1845.0
1772221940.5560272,33.0,249.0,-1839.0
1772221940.564027,35.0,249.0,-1845.0
1772221940.5924084,37.0,251.0,-1851.0
1772221940.6004083,39.0,253.0,-1847.0
1772221940.5924084,37.0,255.0,-1841.0
1772221940.6004083,35.0,253.0,-1843.0
1772221940.6015015,36.0,251.0,-1850.0
1772221940.6095014,40.0,253.0,-1850.0
1772221940.6030755,43.0,256.0,-1845.0
1772221940.6110754,46.0,258.0,-1846.0
1772221940.6046124,47.0,258.0,-1851.0
1772221940.6126122,48.0,260.0,-1853.0
1772221940.6061373,48.0,260.0,-1847.0
1772221940.6141372,50.0,261.0,-1846.0
1772221940.6122372,52.0,261.0,-1852.0
1772221940.620237,53.0,263.0,-1853.0
1772221940.630188,53.0,264.0,-1849.0
1772221940.638188,53.0,263.0,-1847.0
1772221940.637498,53.0,262.0,-1853.0
1772221940.6454978,52.0,264.0,-1855.0
1772221940.637498,54.0,264.0,-1850.0
1772221940.6454978,55.0,262.0,-1847.0
1772221940.6448133,54.0,263.0,-1849.0
1772221940.6528132,52.0,265.0,-1852.0
1772221940.6514492,51.0,263.0,-1848.0
1772221940.659449,51.0,264.0,-1842.0
1772221940.659625,50.0,265.0,-1843.0
1772221940.667625,50.0,265.0,-1844.0
1772221940.6838086,49.0,266.0,-1837.0
1772221940.6918085,47.0,262.0,-1830.0
1772221940.690478,46.0,258.0,-1830.0
1772221940.698478,47.0,259.0,-1832.0
1772221940.7018178,46.0,260.0,-1827.0
1772221940.7098176,45.0,261.0,-1818.0
1772221940.7034194,46.0,261.0,-1814.0
1772221940.7114193,47.0,261.0,-1816.0
1772221940.7034194,47.0,262.0,-1814.0
1772221940.7114193,46.0,260.0,-1805.0
1772221940.7328012,46.0,261.0,-1802.0
1772221940.740801,46.0,261.0,-1805.0
1772221940.7482355,46.0,260.0,-1803.0
1772221940.7562354,47.0,262.0,-1798.0
1772221940.7499292,47.0,262.0,-1795.0
1772221940.757929,47.0,261.0,-1799.0
1772221940.7714415,47.0,261.0,-1800.0
1772221940.7794414,45.0,261.0,-1794.0
1772221940.7714415,46.0,262.0,-1790.0
1772221940.7794414,47.0,261.0,-1793.0
1772221940.7783935,47.0,259.0,-1795.0
1772221940.7863934,46.0,259.0,-1790.0
1772221940.7785134,48.0,263.0,-1786.0
1772221940.7865133,49.0,261.0,-1791.0
1772221940.7785134,48.0,262.0,-1797.0
1772221940.7865133,46.0,263.0,-1800.0
1772221940.7836409,46.0,261.0,-1797.0
1772221940.7916408,46.0,261.0,-1800.0
1772221940.7842965,45.0,261.0,-1808.0
1772221940.7922964,43.0,259.0,-1809.0
1772221940.7874947,41.0,258.0,-1806.0
1772221940.7954946,40.0,258.0,-1810.0
1772221940.7963765,40.0,260.0,-1817.0
1772221940.8043764,40.0,258.0,-1817.0
1772221940.8395548,42.0,259.0,-1812.0
1772221940.8475547,41.0,258.0,-1812.0
1772221940.8395548,42.0,259.0,-1818.0
1772221940.8475547,42.0,259.0,-1821.0
1772221940.8395548,42.0,259.0,-1816.0
1772221940.8475547,42.0,259.0,-1814.0
1772221940.8454194,40.0,259.0,-1820.0
1772221940.8534193,41.0,259.0,-1824.0
1772221940.846097,41.0,258.0,-1821.0
1772221940.854097,40.0,259.0,-1818.0
1772221940.8479376,40.0,259.0,-1821.0
1772221940.8559375,40.0,258.0,-1825.0
1772221940.8494976,40.0,259.0,-1824.0
1772221940.8574975,41.0,260.0,-1819.0
1772221940.8587186,41.0,258.0,-1819.0
1772221940.8667185,41.0,258.0,-1825.0
1772221940.8790033,40.0,258.0,-1822.0
1772221940.8870032,41.0,258.0,-1815.0
1772221940.883553,40.0,256.0,-1816.0
1772221940.891553,40.0,258.0,-1821.0
1772221940.883553,40.0,258.0,-1819.0
1772221940.891553,41.0,258.0,-1813.0
1772221940.890578,41.0,258.0,-1811.0
1772221940.898578,42.0,260.0,-1818.0
1772221940.898836,41.0,259.0,-1817.0
1772221940.9068358,39.0,255.0,-1809.0
1772221940.9072266,40.0,257.0,-1806.0
1772221940.9152265,39.0,258.0,-1814.0
1772221940.9296308,40.0,257.0,-1815.0
1772221940.9376307,39.0,258.0,-1809.0
1772221940.9485784,40.0,258.0,-1806.0
1772221940.9565783,40.0,256.0,-1810.0
1772221940.9485784,40.0,256.0,-1812.0
1772221940.9565783,41.0,258.0,-1807.0
1772221940.958343,42.0,258.0,-1802.0
1772221940.966343,41.0,257.0,-1806.0
1772221940.9601867,42.0,260.0,-1809.0
1772221940.9681866,41.0,260.0,-1804.0
1772221940.962713,42.0,259.0,-1798.0
1772221940.970713,43.0,260.0,-1799.0
1772221940.9785502,44.0,260.0,-1804.0
1772221940.98655,45.0,261.0,-1802.0
1772221940.9801278,47.0,262.0,-1796.0
1772221940.9881277,48.0,263.0,-1797.0
1772221940.98473,48.0,264.0,-1802.0
1772221940.99273,49.0,263.0,-1802.0
1772221940.9862843,49.0,263.0,-1795.0
1772221940.9942842,48.0,263.0,-1796.0
1772221940.9962852,46.0,263.0,-1803.0
1772221941.004285,46.0,262.0,-1803.0
1772221941.0055106,46.0,262.0,-1800.0
1772221941.0135105,47.0,263.0,-1799.0
1772221941.0251431,46.0,261.0,-1807.0
1772221941.033143,45.0,262.0,-1811.0
1772221941.0264428,46.0,264.0,-1808.0
1772221941.0344427,46.0,264.0,-1808.0
1772221941.0273018,47.0,262.0,-1814.0
1772221941.0353017,47.0,261.0,-1819.0
1772221941.0350282,47.0,261.0,-1816.0
1772221941.043028,46.0,262.0,-1814.0
1772221941.0707428,44.0,262.0,-1821.0
1772221941.0787427,44.0,262.0,-1827.0
1772221941.0707428,44.0,262.0,-1827.0
1772221941.0787427,46.0,263.0,-1824.0
1772221941.0758376,45.0,265.0,-1829.0
1772221941.0838375,46.0,264.0,-1836.0
1772221941.0773606,46.0,262.0,-1835.0
1772221941.0853605,46.0,262.0,-1833.0
1772221941.0789125,47.0,262.0,-1837.0
1772221941.0869124,48.0,262.0,-1846.0
1772221941.0819871,46.0,261.0,-1846.0
1772221941.089987,46.0,262.0,-1845.0
1772221941.0916555,44.0,263.0,-1846.0
1772221941.0996554,45.0,263.0,-1856.0
1772221941.107583,44.0,262.0,-1858.0
1772221941.115583,46.0,262.0,-1854.0
1772221941.1172411,45.0,262.0,-1855.0
1772221941.125241,44.0,262.0,-1861.0
1772221941.1172411,46.0,262.0,-1863.0
1772221941.125241,44.0,261.0,-1861.0
1772221941.123825,45.0,261.0,-1860.0
1772221941.131825,44.0,262.0,-1865.0
1772221941.1304815,44.0,261.0,-1871.0
1772221941.1384814,47.0,263.0,-1873.0
1772221941.1381905,46.0,264.0,-1875.0
1772221941.1461904,44.0,263.0,-1883.0
1772221941.1595678,44.0,263.0,-1891.0
1772221941.1675677,44.0,262.0,-1889.0
1772221941.1806204,44.0,263.0,-1887.0
1772221941.1886203,44.0,263.0,-1891.0
1772221941.1823456,46.0,262.0,-1901.0
1772221941.1903455,46.0,261.0,-1898.0
1772221941.206607,45.0,261.0,-1890.0
1772221941.214607,46.0,263.0,-1889.0
1772221941.207674,44.0,262.0,-1891.0
1772221941.215674,45.0,262.0,-1887.0
1772221941.2139804,46.0,263.0,-1879.0
1772221941.2219803,48.0,264.0,-1876.0
1772221941.2139804,45.0,261.0,-1878.0
1772221941.2219803,44.0,261.0,-1877.0
1772221941.2152348,46.0,262.0,-1868.0
1772221941.2232347,45.0,261.0,-1867.0
1772221941.2203236,44.0,261.0,-1870.0
1772221941.2283235,44.0,262.0,-1869.0
1772221941.2218666,46.0,262.0,-1864.0
1772221941.2298665,45.0,262.0,-1862.0
1772221941.2261362,45.0,262.0,-1865.0
1772221941.234136,45.0,261.0,-1864.0
1772221941.234408,46.0,262.0,-1862.0
1772221941.2424078,47.0,263.0,-1858.0
1772221941.2567425,45.0,263.0,-1860.0
1772221941.2647424,45.0,262.0,-1862.0
1772221941.2585554,44.0,262.0,-1857.0
1772221941.2665553,45.0,263.0,-1855.0
1772221941.2593465,46.0,264.0,-1858.0
1772221941.2673464,46.0,264.0,-1862.0
1772221941.2664404,47.0,264.0,-1857.0
1772221941.2744403,46.0,264.0,-1851.0
1772221941.3009818,47.0,263.0,-1852.0
1772221941.3089817,48.0,263.0,-1856.0
1772221941.306767,48.0,264.0,-1853.0
1772221941.314767,48.0,263.0,-1848.0
1772221941.3102267,48.0,264.0,-1849.0
1772221941.3182266,46.0,265.0,-1855.0
1772221941.3119695,48.0,265.0,-1856.0
1772221941.3199694,48.0,265.0,-1852.0
1772221941.3136032,48.0,264.0,-1852.0
1772221941.321603,46.0,262.0,-1861.0
1772221941.3146746,46.0,263.0,-1862.0
1772221941.3226745,45.0,266.0,-1856.0
1772221941.322354,47.0,266.0,-1852.0
1772221941.330354,46.0,264.0,-1859.0
1772221941.332029,48.0,264.0,-1862.0
1772221941.340029,48.0,264.0,-1857.0
1772221941.3518286,48.0,265.0,-1854.0
1772221941.3598285,49.0,266.0,-1857.0
1772221941.3530374,48.0,264.0,-1861.0
1772221941.3610373,49.0,266.0,-1859.0
1772221941.35569,49.0,266.0,-1855.0
1772221941.36369,50.0,267.0,-1857.0
1772221941.362947,49.0,266.0,-1862.0
1772221941.370947,47.0,265.0,-1857.0
1772221941.4406028,49.0,266.0,-1850.0
1772221941.4486027,50.0,265.0,-1848.0
1772221941.4457774,50.0,265.0,-1851.0
1772221941.4537773,51.0,267.0,-1846.0
1772221941.4457774,51.0,266.0,-1836.0
1772221941.4537773,53.0,268.0,-1831.0
1772221941.463566,51.0,266.0,-1835.0
1772221941.471566,51.0,266.0,-1832.0
1772221941.4651594,51.0,266.0,-1823.0
1772221941.4731593,51.0,268.0,-1819.0
1772221941.4917045,50.0,267.0,-1824.0
1772221941.4997044,51.0,267.0,-1823.0
1772221941.4917045,49.0,267.0,-1818.0
1772221941.4997044,50.0,267.0,-1816.0
1772221941.4917045,53.0,269.0,-1821.0
1772221941.4997044,53.0,269.0,-1824.0
1772221941.4930441,48.0,268.0,-1821.0
1772221941.501044,50.0,270.0,-1819.0
1772221941.4930441,51.0,266.0,-1824.0
1772221941.501044,50.0,266.0,-1830.0
1772221941.4930441,51.0,268.0,-1827.0
1772221941.501044,50.0,266.0,-1826.0
1772221941.4943354,46.0,264.0,-1827.0
1772221941.5023353,44.0,264.0,-1833.0
1772221941.4943354,44.0,261.0,-1835.0
1772221941.5023353,40.0,260.0,-1833.0
1772221941.4943354,43.0,260.0,-1834.0
1772221941.5023353,45.0,260.0,-1840.0
1772221941.4963555,43.0,260.0,-1841.0
1772221941.5043554,42.0,259.0,-1835.0
1772221941.4971137,43.0,260.0,-1837.0
1772221941.5051136,42.0,261.0,-1842.0
1772221941.4986372,42.0,261.0,-1844.0
1772221941.506637,43.0,260.0,-1841.0
1772221941.507836,43.0,259.0,-1840.0
1772221941.515836,43.0,260.0,-1846.0
1772221941.5375018,41.0,260.0,-1847.0
1772221941.5455017,40.0,260.0,-1844.0
1772221941.5375018,43.0,260.0,-1842.0
1772221941.5455017,41.0,260.0,-1846.0
1772221941.5492835,42.0,259.0,-1849.0
1772221941.5572834,43.0,260.0,-1846.0
1772221941.5508924,40.0,259.0,-1844.0
1772221941.5588923,40.0,259.0,-1847.0
1772221941.5508924,40.0,258.0,-1851.0
1772221941.5588923,39.0,258.0,-1851.0
1772221941.5532005,42.0,260.0,-1846.0
1772221941.5612004,41.0,260.0,-1848.0
1772221941.5624201,40.0,259.0,-1854.0
1772221941.57042,42.0,258.0,-1853.0
1772221941.5846295,42.0,258.0,-1849.0
1772221941.5926294,42.0,257.0,-1849.0
1772221941.5866287,41.0,258.0,-1853.0
1772221941.5946286,40.0,258.0,-1849.0
1772221941.5866287,38.0,258.0,-1844.0
1772221941.5946286,39.0,260.0,-1841.0
1772221941.5967653,39.0,256.0,-1844.0
1772221941.6047652,39.0,255.0,-1840.0
1772221941.6029422,40.0,258.0,-1831.0
1772221941.6109421,38.0,258.0,-1828.0
1772221941.611157,41.0,259.0,-1833.0
1772221941.6191568,43.0,256.0,-1838.0
1772221941.630807,41.0,256.0,-1839.0
1772221941.6388068,41.0,259.0,-1841.0
1772221941.632808,39.0,257.0,-1852.0
1772221941.6408079,38.0,258.0,-1860.0
1772221941.652026,40.0,259.0,-1861.0
1772221941.6600258,43.0,260.0,-1862.0
1772221941.652026,39.0,259.0,-1870.0
1772221941.6600258,40.0,261.0,-1874.0
1772221941.6779144,42.0,261.0,-1875.0
1772221941.6859143,41.0,259.0,-1871.0
1772221941.6779144,41.0,259.0,-1874.0
1772221941.6859143,40.0,258.0,-1877.0
1772221941.6791897,42.0,260.0,-1875.0
1772221941.6871896,43.0,261.0,-1870.0
1772221941.6823423,38.0,260.0,-1867.0
1772221941.6903422,40.0,260.0,-1871.0
1772221941.6839218,42.0,258.0,-1868.0
1772221941.6919217,41.0,259.0,-1861.0
1772221941.693947,43.0,257.0,-1858.0
1772221941.701947,40.0,258.0,-1861.0
1772221941.6983058,39.0,259.0,-1859.0
1772221941.7063057,39.0,258.0,-1853.0
1772221941.706699,40.0,260.0,-1846.0
1772221941.7146988,40.0,259.0,-1850.0
1772221941.7264469,41.0,258.0,-1851.0
1772221941.7344468,40.0,259.0,-1843.0
1772221941.7392223,39.0,259.0,-1838.0
1772221941.7472222,40.0,257.0,-1839.0
1772221941.7395563,40.0,257.0,-1841.0
1772221941.7475562,41.0,260.0,-1834.0
1772221941.741117,42.0,260.0,-1826.0
1772221941.749117,40.0,257.0,-1824.0
1772221941.7701023,41.0,257.0,-1821.0
1772221941.7781022,40.0,257.0,-1810.0
1772221941.7701023,41.0,258.0,-1798.0
1772221941.7781022,38.0,259.0,-1796.0
1772221941.7800527,39.0,259.0,-1798.0
1772221941.7880526,38.0,258.0,-1797.0
1772221941.7816424,38.0,258.0,-1794.0
1772221941.7896423,42.0,260.0,-1799.0
1772221941.783177,41.0,258.0,-1808.0
1772221941.7911768,41.0,258.0,-1810.0
1772221941.7877865,41.0,259.0,-1811.0
1772221941.7957864,42.0,258.0,-1811.0
1772221941.799457,40.0,256.0,-1819.0
1772221941.807457,41.0,258.0,-1823.0
1772221941.8179927,42.0,259.0,-1821.0
1772221941.8259926,41.0,260.0,-1823.0
1772221941.8191414,40.0,260.0,-1830.0
1772221941.8271413,40.0,261.0,-1835.0
1772221941.8199103,41.0,261.0,-1834.0
1772221941.8279102,42.0,258.0,-1834.0
1772221941.8258314,40.0,258.0,-1841.0
1772221941.8338313,39.0,258.0,-1843.0
1772221941.834935,41.0,256.0,-1838.0
1772221941.8429348,40.0,257.0,-1835.0
1772221941.844598,39.0,257.0,-1839.0
1772221941.852598,40.0,259.0,-1841.0
1772221941.8570595,42.0,259.0,-1838.0
1772221941.8650594,39.0,258.0,-1833.0
1772221941.86219,38.0,257.0,-1834.0
1772221941.87019,39.0,257.0,-1841.0
1772221941.883632,39.0,258.0,-1839.0
1772221941.8916318,40.0,258.0,-1834.0
1772221941.8859253,40.0,259.0,-1836.0
1772221941.8939252,40.0,259.0,-1842.0
1772221941.9106724,40.0,258.0,-1840.0
1772221941.9186723,41.0,257.0,-1835.0
1772221941.9106724,40.0,258.0,-1836.0
1772221941.9186723,39.0,258.0,-1840.0
1772221941.9127038,41.0,256.0,-1841.0
1772221941.9207036,40.0,259.0,-1838.0
1772221941.9134014,38.0,258.0,-1836.0
1772221941.9214013,39.0,257.0,-1841.0
1772221941.9149292,39.0,257.0,-1844.0
1772221941.922929,39.0,259.0,-1841.0
1772221941.9241476,39.0,259.0,-1840.0
1772221941.9321475,41.0,258.0,-1846.0
1772221941.9324083,43.0,258.0,-1849.0
1772221941.9404082,37.0,259.0,-1846.0
1772221941.938597,38.0,258.0,-1845.0
1772221941.9465969,38.0,257.0,-1853.0
1772221941.9560685,39.0,257.0,-1856.0
1772221941.9640684,39.0,255.0,-1858.0
1772221941.9580665,39.0,258.0,-1858.0
1772221941.9660664,37.0,259.0,-1862.0
1772221941.9628808,38.0,258.0,-1871.0
1772221941.9708807,40.0,258.0,-1872.0
1772221941.9713333,40.0,260.0,-1869.0
1772221941.9793332,38.0,260.0,-1872.0
1772221941.9806967,39.0,257.0,-1879.0
1772221941.9886966,39.0,258.0,-1879.0
1772221942.00361,40.0,258.0,-1874.0
1772221942.0116098,41.0,257.0,-1875.0
1772221942.00361,39.0,256.0,-1879.0
1772221942.0116098,37.0,257.0,-1879.0
1772221942.004838,36.0,258.0,-1875.0
1772221942.012838,37.0,256.0,-1871.0
1772221942.0497017,38.0,256.0,-1874.0
1772221942.0577016,40.0,258.0,-1874.0
1772221942.0502675,37.0,257.0,-1868.0
1772221942.0582674,37.0,255.0,-1864.0
1772221942.0516982,36.0,256.0,-1866.0
1772221942.059698,38.0,257.0,-1867.0
1772221942.053656,39.0,258.0,-1861.0
1772221942.061656,38.0,258.0,-1857.0
1772221942.0551922,38.0,256.0,-1857.0
1772221942.0631921,39.0,256.0,-1857.0
1772221942.0567322,40.0,255.0,-1851.0
1772221942.064732,40.0,259.0,-1845.0
1772221942.0582697,36.0,258.0,-1843.0
1772221942.0662696,38.0,256.0,-1843.0
1772221942.0680509,39.0,257.0,-1834.0
1772221942.0760508,37.0,257.0,-1823.0
1772221942.0773513,38.0,254.0,-1817.0
1772221942.0853512,40.0,256.0,-1814.0
1772221942.0975966,38.0,256.0,-1811.0
1772221942.1055965,39.0,258.0,-1806.0
1772221942.0992522,39.0,256.0,-1804.0
1772221942.1072521,38.0,257.0,-1809.0
1772221942.0992522,38.0,258.0,-1813.0
1772221942.1072521,40.0,258.0,-1810.0
1772221942.1240487,42.0,258.0,-1809.0
1772221942.1320486,40.0,257.0,-1813.0
1772221942.1250713,40.0,258.0,-1816.0
1772221942.1330712,41.0,258.0,-1818.0
1772221942.1447127,40.0,256.0,-1817.0
1772221942.1527126,39.0,258.0,-1824.0
1772221942.145049,38.0,257.0,-1829.0
1772221942.153049,37.0,255.0,-1828.0
1772221942.145049,40.0,256.0,-1827.0
1772221942.153049,41.0,258.0,-1835.0
1772221942.1466181,41.0,256.0,-1841.0
1772221942.154618,42.0,256.0,-1840.0
1772221942.15612,39.0,258.0,-1837.0
1772221942.16412,39.0,259.0,-1841.0
1772221942.1620796,41.0,260.0,-1849.0
1772221942.1700795,42.0,260.0,-1846.0
1772221942.1715117,43.0,257.0,-1840.0
1772221942.1795115,42.0,259.0,-1840.0
1772221942.1908543,42.0,258.0,-1845.0
1772221942.1988542,39.0,257.0,-1842.0
1772221942.1928535,41.0,258.0,-1838.0
1772221942.2008533,42.0,258.0,-1837.0
1772221942.1947248,42.0,258.0,-1839.0
1772221942.2027247,42.0,258.0,-1841.0
1772221942.2046819,40.0,258.0,-1836.0
1772221942.2126818,41.0,259.0,-1832.0
1772221942.210358,41.0,257.0,-1837.0
1772221942.2183578,41.0,258.0,-1838.0
1772221942.2375042,42.0,260.0,-1834.0
1772221942.2455041,41.0,258.0,-1830.0
1772221942.2375042,41.0,258.0,-1833.0
1772221942.2455041,40.0,259.0,-1836.0
1772221942.2549517,42.0,259.0,-1832.0
1772221942.2629516,43.0,257.0,-1826.0
1772221942.256015,42.0,259.0,-1830.0
1772221942.264015,42.0,260.0,-1833.0
1772221942.2575407,41.0,259.0,-1829.0
1772221942.2655406,41.0,258.0,-1825.0
1772221942.259066,42.0,259.0,-1826.0
1772221942.267066,41.0,257.0,-1830.0
1772221942.2735376,44.0,261.0,-1827.0
1772221942.2815375,42.0,260.0,-1821.0
1772221942.283578,40.0,256.0,-1823.0
1772221942.2915778,41.0,257.0,-1828.0
1772221942.2850938,41.0,258.0,-1827.0
1772221942.2930937,43.0,259.0,-1821.0
1772221942.2912104,45.0,257.0,-1821.0
1772221942.2992103,43.0,257.0,-1826.0
1772221942.3010817,40.0,257.0,-1826.0
1772221942.3090816,40.0,258.0,-1823.0
1772221942.3057215,42.0,258.0,-1823.0
1772221942.3137214,41.0,259.0,-1828.0
1772221942.3282785,41.0,258.0,-1829.0
1772221942.3362784,43.0,258.0,-1822.0
1772221942.3302786,45.0,261.0,-1820.0
1772221942.3382785,44.0,261.0,-1829.0
1772221942.3319411,43.0,260.0,-1835.0
1772221942.339941,42.0,259.0,-1833.0
1772221942.3604982,43.0,260.0,-1831.0
1772221942.368498,42.0,258.0,-1837.0
1772221942.3714244,43.0,258.0,-1841.0
1772221942.3794243,42.0,258.0,-1839.0
1772221942.3773508,42.0,259.0,-1834.0
1772221942.3853507,41.0,257.0,-1835.0
1772221942.3773508,40.0,257.0,-1840.0
1772221942.3853507,40.0,258.0,-1840.0
1772221942.379364,41.0,258.0,-1833.0
1772221942.387364,43.0,260.0,-1834.0
1772221942.3800025,42.0,259.0,-1837.0
1772221942.3880024,41.0,257.0,-1836.0
1772221942.3861182,41.0,255.0,-1832.0
1772221942.394118,43.0,258.0,-1830.0
1772221942.3953128,43.0,260.0,-1835.0
1772221942.4033127,42.0,258.0,-1838.0
1772221942.4034588,43.0,259.0,-1832.0
1772221942.4114587,43.0,260.0,-1830.0
1772221942.4199572,43.0,260.0,-1834.0
1772221942.427957,41.0,258.0,-1837.0
1772221942.4248412,42.0,259.0,-1834.0
1772221942.432841,40.0,261.0,-1831.0
1772221942.4294534,43.0,260.0,-1836.0
1772221942.4374533,43.0,259.0,-1839.0
1772221942.4343107,42.0,258.0,-1838.0
1772221942.4423106,43.0,259.0,-1835.0
1772221942.4434817,45.0,258.0,-1837.0
1772221942.4514816,41.0,260.0,-1843.0
1772221942.4518592,42.0,259.0,-1839.0
1772221942.4598591,43.0,257.0,-1836.0
1772221942.4861586,43.0,259.0,-1840.0
1772221942.4941585,39.0,258.0,-1843.0
1772221942.4861586,41.0,257.0,-1842.0
1772221942.4941585,41.0,257.0,-1838.0
1772221942.4904566,44.0,261.0,-1838.0
1772221942.4984565,42.0,257.0,-1842.0
1772221942.4919977,40.0,257.0,-1841.0
1772221942.4999976,40.0,256.0,-1834.0
1772221942.4953153,41.0,257.0,-1832.0
1772221942.5033152,41.0,256.0,-1838.0
1772221942.5152786,40.0,256.0,-1841.0
1772221942.5232785,42.0,258.0,-1834.0
1772221942.5263007,41.0,257.0,-1831.0
1772221942.5343006,39.0,258.0,-1838.0
1772221942.5264106,40.0,255.0,-1840.0
1772221942.5344105,41.0,255.0,-1833.0
1772221942.5264106,41.0,256.0,-1831.0
1772221942.5344105,36.0,253.0,-1834.0
1772221942.5343606,38.0,254.0,-1836.0
1772221942.5423605,37.0,256.0,-1833.0
1772221942.538935,38.0,256.0,-1829.0
1772221942.5469348,37.0,255.0,-1832.0
1772221942.5639348,36.0,254.0,-1834.0
1772221942.5719347,36.0,254.0,-1831.0
1772221942.5749211,35.0,252.0,-1828.0
1772221942.582921,35.0,253.0,-1829.0
1772221942.5749211,37.0,253.0,-1833.0
1772221942.582921,35.0,253.0,-1830.0
1772221942.5749211,35.0,254.0,-1825.0
1772221942.582921,33.0,252.0,-1823.0
1772221942.6073742,34.0,251.0,-1831.0
1772221942.615374,34.0,252.0,-1830.0
1772221942.608175,34.0,253.0,-1824.0
1772221942.616175,34.0,252.0,-1824.0
1772221942.609696,32.0,250.0,-1828.0
1772221942.6176958,32.0,252.0,-1829.0
1772221942.609696,33.0,251.0,-1824.0
1772221942.6176958,32.0,250.0,-1821.0
1772221942.6107018,32.0,251.0,-1825.0
1772221942.6187017,32.0,251.0,-1827.0
1772221942.6201863,35.0,251.0,-1825.0
1772221942.6281862,33.0,249.0,-1820.0
1772221942.6291127,31.0,251.0,-1827.0
1772221942.6371126,33.0,250.0,-1829.0
1772221942.6354234,34.0,250.0,-1824.0
1772221942.6434233,34.0,252.0,-1822.0
1772221942.6573992,37.0,253.0,-1827.0
1772221942.665399,32.0,252.0,-1830.0
1772221942.6697109,34.0,252.0,-1827.0
1772221942.6777108,35.0,251.0,-1823.0
1772221942.6713116,37.0,253.0,-1825.0
1772221942.6793115,35.0,253.0,-1830.0
1772221942.7015514,36.0,252.0,-1829.0
1772221942.7095513,35.0,253.0,-1825.0
1772221942.7030642,36.0,253.0,-1826.0
1772221942.711064,35.0,252.0,-1831.0
1772221942.723615,34.0,253.0,-1830.0
1772221942.7316148,36.0,253.0,-1827.0
1772221942.725142,37.0,254.0,-1826.0
1772221942.733142,38.0,255.0,-1832.0
1772221942.7342763,36.0,254.0,-1833.0
1772221942.7422762,37.0,255.0,-1830.0
1772221942.749251,36.0,254.0,-1827.0
1772221942.7572508,37.0,254.0,-1829.0
1772221942.749251,38.0,256.0,-1831.0
1772221942.7572508,37.0,256.0,-1828.0
1772221942.749251,38.0,255.0,-1827.0
1772221942.7572508,37.0,256.0,-1830.0
1772221942.7512903,40.0,256.0,-1834.0
1772221942.7592902,39.0,255.0,-1830.0
1772221942.7520673,40.0,256.0,-1825.0
1772221942.7600672,38.0,256.0,-1828.0
1772221942.7520673,38.0,259.0,-1829.0
1772221942.7600672,39.0,259.0,-1828.0
1772221942.754104,40.0,258.0,-1824.0
1772221942.7621038,39.0,259.0,-1824.0
1772221942.7633836,38.0,257.0,-1829.0
1772221942.7713835,38.0,257.0,-1826.0
1772221942.76919,38.0,256.0,-1822.0
1772221942.77719,39.0,256.0,-1823.0
1772221942.7978685,38.0,255.0,-1826.0
1772221942.8058684,38.0,254.0,-1826.0
1772221942.7978685,38.0,257.0,-1821.0
1772221942.8058684,37.0,258.0,-1818.0
1772221942.7993834,38.0,257.0,-1825.0
1772221942.8073833,38.0,257.0,-1827.0
1772221942.802448,38.0,255.0,-1825.0
1772221942.810448,37.0,256.0,-1821.0
1772221942.844344,36.0,255.0,-1826.0
1772221942.8523438,35.0,254.0,-1826.0
1772221942.844344,36.0,254.0,-1821.0
1772221942.8523438,36.0,255.0,-1816.0
1772221942.8540294,36.0,255.0,-1817.0
1772221942.8620293,34.0,254.0,-1820.0
1772221942.8547676,35.0,254.0,-1817.0
1772221942.8627675,34.0,254.0,-1814.0
1772221942.8578815,34.0,253.0,-1818.0
1772221942.8658814,34.0,253.0,-1824.0
1772221942.8578815,33.0,253.0,-1823.0
1772221942.8658814,31.0,252.0,-1820.0
1772221942.8600585,31.0,251.0,-1821.0
1772221942.8680584,30.0,251.0,-1825.0
1772221942.8667858,29.0,248.0,-1821.0
1772221942.8747857,28.0,248.0,-1816.0
1772221942.89064,29.0,248.0,-1818.0
1772221942.89864,28.0,247.0,-1822.0
1772221942.8921611,29.0,249.0,-1821.0
1772221942.900161,28.0,247.0,-1815.0
1772221942.8921611,28.0,247.0,-1812.0
1772221942.900161,27.0,246.0,-1816.0
1772221942.901945,27.0,245.0,-1818.0
1772221942.909945,27.0,246.0,-1813.0
1772221942.906631,27.0,245.0,-1811.0
1772221942.914631,26.0,245.0,-1814.0
1772221942.9153032,27.0,246.0,-1814.0
1772221942.9233031,27.0,246.0,-1811.0
1772221942.943349,27.0,246.0,-1808.0
1772221942.9513488,29.0,246.0,-1811.0
1772221942.944923,29.0,246.0,-1814.0
1772221942.9529228,28.0,245.0,-1810.0
1772221942.9826133,26.0,245.0,-1807.0
1772221942.9906132,26.0,245.0,-1808.0
1772221942.9826133,28.0,246.0,-1812.0
1772221942.9906132,28.0,247.0,-1809.0
1772221942.9826133,28.0,247.0,-1804.0
1772221942.9906132,29.0,247.0,-1805.0
1772221942.9846437,29.0,247.0,-1812.0
1772221942.9926436,29.0,247.0,-1812.0
1772221942.9853995,31.0,248.0,-1806.0
1772221942.9933994,31.0,249.0,-1807.0
1772221942.9853995,30.0,248.0,-1812.0
1772221942.9933994,30.0,249.0,-1810.0
1772221942.9869554,32.0,249.0,-1806.0
1772221942.9949553,34.0,250.0,-1806.0
1772221942.996723,33.0,251.0,-1811.0
1772221943.0047228,33.0,251.0,-1812.0
1772221943.0025003,33.0,252.0,-1807.0
1772221943.0105002,35.0,252.0,-1806.0
1772221943.0109851,36.0,253.0,-1810.0
1772221943.018985,38.0,254.0,-1814.0
1772221943.0310113,38.0,255.0,-1809.0
1772221943.0390112,38.0,254.0,-1806.0
1772221943.032535,39.0,255.0,-1810.0
1772221943.040535,39.0,254.0,-1814.0
1772221943.0355892,41.0,256.0,-1811.0
1772221943.043589,42.0,257.0,-1807.0
1772221943.0417655,44.0,258.0,-1809.0
1772221943.0497653,42.0,258.0,-1815.0
1772221943.077764,44.0,259.0,-1812.0
1772221943.085764,45.0,261.0,-1807.0
1772221943.077764,45.0,260.0,-1809.0
1772221943.085764,45.0,261.0,-1812.0
1772221943.0839536,47.0,261.0,-1812.0
1772221943.0919535,48.0,263.0,-1808.0
1772221943.085561,47.0,264.0,-1807.0
1772221943.093561,49.0,264.0,-1812.0
1772221943.0870829,49.0,264.0,-1811.0
1772221943.0950828,50.0,264.0,-1806.0
1772221943.0913692,49.0,264.0,-1806.0
1772221943.099369,50.0,263.0,-1812.0
1772221943.1002762,48.0,264.0,-1813.0
1772221943.1082761,48.0,265.0,-1810.0
1772221943.1207075,49.0,264.0,-1807.0
1772221943.1287074,48.0,263.0,-1812.0
1772221943.1227083,48.0,263.0,-1814.0
1772221943.1307082,50.0,264.0,-1809.0
1772221943.1242287,49.0,265.0,-1808.0
1772221943.1322286,48.0,264.0,-1812.0
1772221943.130865,47.0,264.0,-1815.0
1772221943.138865,47.0,265.0,-1811.0
1772221943.1385422,48.0,265.0,-1806.0
1772221943.146542,47.0,263.0,-1809.0
1772221943.1485934,45.0,261.0,-1815.0
1772221943.1565933,46.0,261.0,-1813.0
1772221943.156238,45.0,260.0,-1808.0
1772221943.164238,43.0,260.0,-1808.0
1772221943.1848373,43.0,261.0,-1814.0
1772221943.1928372,40.0,261.0,-1812.0
1772221943.1848373,41.0,260.0,-1808.0
1772221943.1928372,41.0,261.0,-1808.0
1772221943.1967516,41.0,259.0,-1814.0
1772221943.2047515,41.0,257.0,-1814.0
1772221943.198496,42.0,257.0,-1810.0
1772221943.206496,41.0,257.0,-1808.0
1772221943.2015638,38.0,256.0,-1812.0
1772221943.2095637,37.0,255.0,-1814.0
1772221943.2022657,38.0,255.0,-1808.0
1772221943.2102656,36.0,255.0,-1806.0
1772221943.22993,35.0,252.0,-1810.0
1772221943.2379298,35.0,254.0,-1814.0
1772221943.22993,33.0,251.0,-1812.0
1772221943.2379298,31.0,251.0,-1809.0
1772221943.231455,30.0,249.0,-1810.0
1772221943.239455,29.0,248.0,-1814.0
1772221943.2346423,27.0,250.0,-1813.0
1772221943.2426422,27.0,247.0,-1808.0
1772221943.2423656,28.0,247.0,-1811.0
1772221943.2503655,28.0,247.0,-1816.0
1772221943.2508311,26.0,246.0,-1814.0
1772221943.258831,26.0,247.0,-1809.0
1772221943.261117,28.0,244.0,-1811.0
1772221943.2691169,28.0,244.0,-1815.0
1772221943.2800536,27.0,245.0,-1814.0
1772221943.2880535,25.0,244.0,-1810.0
1772221943.2839215,26.0,243.0,-1809.0
1772221943.2919214,27.0,243.0,-1816.0
1772221943.2839215,26.0,242.0,-1815.0
1772221943.2919214,26.0,242.0,-1811.0
1772221943.3248808,26.0,243.0,-1810.0
1772221943.3328807,26.0,243.0,-1815.0
1772221943.326163,27.0,243.0,-1816.0
1772221943.334163,27.0,243.0,-1812.0
1772221943.347988,26.0,242.0,-1811.0
1772221943.3559878,24.0,241.0,-1813.0
1772221943.3490918,26.0,241.0,-1818.0
1772221943.3570917,28.0,239.0,-1814.0
1772221943.37145,27.0,241.0,-1810.0
1772221943.3794498,26.0,243.0,-1813.0
1772221943.37145,27.0,243.0,-1816.0
1772221943.3794498,28.0,243.0,-1811.0
1772221943.3727384,29.0,244.0,-1807.0
1772221943.3807383,29.0,245.0,-1808.0
1772221943.3727384,30.0,246.0,-1812.0
1772221943.3807383,31.0,247.0,-1811.0
1772221943.3743231,30.0,247.0,-1809.0
1772221943.382323,31.0,247.0,-1811.0
1772221943.3779328,31.0,247.0,-1819.0
1772221943.3859327,31.0,248.0,-1818.0
1772221943.3782291,31.0,248.0,-1815.0
1772221943.386229,32.0,248.0,-1815.0
1772221943.3813407,34.0,249.0,-1819.0
1772221943.3893406,35.0,251.0,-1818.0
1772221943.3859334,37.0,252.0,-1815.0
1772221943.3939333,36.0,251.0,-1813.0
1772221943.4204962,36.0,251.0,-1817.0
1772221943.4284961,37.0,253.0,-1818.0
1772221943.4204962,39.0,253.0,-1816.0
1772221943.4284961,40.0,253.0,-1813.0
1772221943.4215043,40.0,254.0,-1816.0
1772221943.4295042,41.0,255.0,-1821.0
1772221943.4231026,41.0,254.0,-1817.0
1772221943.4311025,42.0,256.0,-1813.0
1772221943.4293165,43.0,258.0,-1817.0
1772221943.4373164,43.0,258.0,-1820.0
1772221943.4355676,44.0,258.0,-1815.0
1772221943.4435675,45.0,258.0,-1813.0
1772221943.443201,44.0,258.0,-1817.0
1772221943.451201,44.0,258.0,-1821.0
1772221943.4646778,44.0,257.0,-1822.0
1772221943.4726777,45.0,257.0,-1817.0
1772221943.4662082,45.0,258.0,-1819.0
1772221943.474208,43.0,258.0,-1824.0
1772221943.4662082,44.0,258.0,-1823.0
1772221943.474208,44.0,259.0,-1818.0
1772221943.4747245,43.0,258.0,-1819.0
1772221943.4827244,42.0,257.0,-1825.0
1772221943.482743,42.0,258.0,-1825.0
1772221943.490743,43.0,258.0,-1819.0
1772221943.4909918,42.0,258.0,-1819.0
1772221943.4989917,41.0,255.0,-1824.0
1772221943.511274,41.0,256.0,-1825.0
1772221943.519274,42.0,258.0,-1821.0
1772221943.5143251,43.0,257.0,-1819.0
1772221943.522325,45.0,259.0,-1825.0
1772221943.5143251,47.0,261.0,-1828.0
1772221943.522325,47.0,264.0,-1825.0
1772221943.5584552,50.0,265.0,-1821.0
1772221943.5664551,52.0,266.0,-1823.0
1772221943.5584552,53.0,269.0,-1829.0
1772221943.5664551,55.0,270.0,-1825.0
1772221943.5599773,57.0,271.0,-1821.0
1772221943.5679772,61.0,274.0,-1824.0
1772221943.5599773,62.0,277.0,-1829.0
1772221943.5679772,60.0,279.0,-1826.0
1772221943.5622025,64.0,281.0,-1821.0
1772221943.5702024,67.0,283.0,-1824.0
1772221943.5638075,69.0,284.0,-1830.0
1772221943.5718074,70.0,288.0,-1828.0
1772221943.5701673,73.0,296.0,-1823.0
1772221943.5781672,74.0,298.0,-1823.0
1772221943.5778172,74.0,298.0,-1833.0
1772221943.585817,76.0,298.0,-1832.0
1772221943.587233,76.0,300.0,-1828.0
1772221943.595233,78.0,304.0,-1827.0
1772221943.604765,80.0,308.0,-1833.0
1772221943.6127648,79.0,310.0,-1833.0
1772221943.6062737,82.0,305.0,-1829.0
1772221943.6142735,79.0,304.0,-1827.0
1772221943.6114233,73.0,308.0,-1830.0
1772221943.6194232,74.0,306.0,-1832.0
1772221943.6191652,76.0,305.0,-1830.0
1772221943.627165,73.0,304.0,-1827.0
1772221943.6268063,71.0,305.0,-1830.0
1772221943.6348062,70.0,300.0,-1833.0
1772221943.6517293,76.0,297.0,-1830.0
1772221943.6597292,73.0,295.0,-1827.0
1772221943.6789548,68.0,296.0,-1829.0
1772221943.6869547,65.0,294.0,-1831.0
1772221943.6815038,64.0,289.0,-1829.0
1772221943.6895037,62.0,284.0,-1825.0
1772221943.6863723,60.0,284.0,-1829.0
1772221943.6943722,58.0,284.0,-1833.0
1772221943.6933203,53.0,281.0,-1829.0
1772221943.7013202,53.0,279.0,-1825.0
1772221943.69682,53.0,276.0,-1826.0
1772221943.70482,50.0,273.0,-1831.0
1772221943.715404,48.0,272.0,-1831.0
1772221943.723404,48.0,270.0,-1826.0
1772221943.716393,46.0,267.0,-1824.0
1772221943.724393,43.0,267.0,-1830.0
1772221943.716393,44.0,263.0,-1832.0
1772221943.724393,43.0,259.0,-1828.0
1772221943.716393,40.0,255.0,-1825.0
1772221943.724393,36.0,258.0,-1831.0
1772221943.7187984,38.0,255.0,-1834.0
1772221943.7267983,38.0,256.0,-1829.0
1772221943.723442,33.0,258.0,-1825.0
1772221943.731442,32.0,261.0,-1827.0
1772221943.7300625,35.0,251.0,-1834.0
1772221943.7380624,33.0,245.0,-1831.0
1772221943.7384102,29.0,247.0,-1825.0
1772221943.7464101,26.0,245.0,-1826.0
1772221943.7611601,28.0,243.0,-1830.0
1772221943.76916,33.0,242.0,-1829.0
1772221943.7739487,29.0,247.0,-1826.0
1772221943.7819486,23.0,244.0,-1826.0
1772221943.7755108,24.0,245.0,-1830.0
1772221943.7835107,26.0,248.0,-1829.0
1772221943.8067372,29.0,249.0,-1822.0
1772221943.814737,22.0,247.0,-1823.0
1772221943.8175225,15.0,236.0,-1826.0
1772221943.8255224,11.0,229.0,-1826.0
1772221943.8175225,14.0,237.0,-1820.0
1772221943.8255224,16.0,236.0,-1819.0
1772221943.8188162,15.0,236.0,-1826.0
1772221943.826816,13.0,237.0,-1828.0
1772221943.820376,14.0,236.0,-1822.0
1772221943.8283758,17.0,237.0,-1820.0
1772221943.820376,12.0,231.0,-1823.0
1772221943.8283758,13.0,230.0,-1826.0
1772221943.821589,16.0,235.0,-1822.0
1772221943.829589,18.0,237.0,-1820.0
1772221943.8277338,18.0,235.0,-1824.0
1772221943.8357337,20.0,232.0,-1827.0
1772221943.8512855,21.0,230.0,-1824.0
1772221943.8592854,19.0,234.0,-1818.0
1772221943.8570888,18.0,237.0,-1819.0
1772221943.8650887,21.0,238.0,-1824.0
1772221943.8570888,22.0,238.0,-1818.0
1772221943.8650887,23.0,243.0,-1812.0
1772221943.8606305,24.0,242.0,-1810.0
1772221943.8686304,25.0,236.0,-1815.0
1772221943.8678212,24.0,239.0,-1813.0
1772221943.875821,26.0,244.0,-1812.0
1772221943.9036055,25.0,243.0,-1812.0
1772221943.9116054,28.0,245.0,-1819.0
1772221943.9036055,27.0,245.0,-1823.0
1772221943.9116054,27.0,246.0,-1817.0
1772221943.9048955,29.0,245.0,-1815.0
1772221943.9128954,29.0,245.0,-1819.0
1772221943.9064605,28.0,248.0,-1820.0
1772221943.9144604,31.0,247.0,-1816.0
1772221943.9079971,32.0,244.0,-1813.0
1772221943.915997,31.0,242.0,-1816.0
1772221943.9163003,30.0,245.0,-1821.0
1772221943.9243002,29.0,248.0,-1815.0
1772221943.922061,31.0,249.0,-1813.0
1772221943.9300609,33.0,251.0,-1817.0
1772221943.9542158,32.0,252.0,-1821.0
1772221943.9622157,32.0,247.0,-1818.0
1772221943.9546332,33.0,245.0,-1814.0
1772221943.9626331,34.0,247.0,-1817.0
1772221943.991934,33.0,247.0,-1821.0
1772221943.999934,31.0,248.0,-1818.0
1772221943.991934,28.0,250.0,-1815.0
1772221943.999934,28.0,254.0,-1817.0
1772221943.991934,32.0,251.0,-1822.0
1772221943.999934,35.0,250.0,-1821.0
1772221943.9929435,29.0,242.0,-1817.0
1772221944.0009434,27.0,237.0,-1819.0
1772221943.9935634,30.0,240.0,-1823.0
1772221944.0015633,34.0,244.0,-1822.0
1772221944.0011013,30.0,242.0,-1818.0
1772221944.0091012,28.0,237.0,-1818.0
1772221944.021506,30.0,240.0,-1823.0
1772221944.029506,27.0,240.0,-1824.0
1772221944.029166,18.0,237.0,-1821.0
1772221944.0371659,18.0,241.0,-1817.0
1772221944.0413947,27.0,241.0,-1821.0
1772221944.0493946,24.0,233.0,-1823.0
1772221944.0413947,17.0,231.0,-1817.0
1772221944.0493946,13.0,229.0,-1815.0
1772221944.0484812,12.0,228.0,-1817.0
1772221944.0564811,13.0,224.0,-1822.0
1772221944.0505202,13.0,232.0,-1817.0
1772221944.05852,13.0,233.0,-1814.0
1772221944.0520854,12.0,229.0,-1817.0
1772221944.0600853,8.0,221.0,-1821.0
1772221944.0537345,7.0,231.0,-1817.0
1772221944.0617344,8.0,232.0,-1813.0
1772221944.058336,18.0,223.0,-1815.0
1772221944.066336,12.0,211.0,-1818.0
1772221944.0718932,7.0,211.0,-1817.0
1772221944.079893,4.0,215.0,-1813.0
1772221944.0911155,0.0,220.0,-1813.0
1772221944.0991154,3.0,229.0,-1819.0
1772221944.1033952,4.0,228.0,-1818.0
1772221944.1113951,7.0,221.0,-1813.0
1772221944.1047227,13.0,221.0,-1811.0
1772221944.1127226,13.0,222.0,-1815.0
1772221944.124944,14.0,224.0,-1818.0
1772221944.1329439,8.0,228.0,-1814.0
1772221944.124944,13.0,234.0,-1812.0
1772221944.1329439,16.0,232.0,-1818.0
1772221944.124944,15.0,232.0,-1818.0
1772221944.1329439,22.0,233.0,-1813.0
1772221944.141542,25.0,233.0,-1810.0
1772221944.1495419,26.0,234.0,-1813.0
1772221944.1426537,30.0,236.0,-1817.0
1772221944.1506536,31.0,239.0,-1814.0
1772221944.1485157,31.0,240.0,-1809.0
1772221944.1565156,29.0,243.0,-1812.0
1772221944.1496391,32.0,246.0,-1817.0
1772221944.157639,37.0,240.0,-1814.0
1772221944.1542556,38.0,238.0,-1809.0
1772221944.1622555,35.0,241.0,-1810.0
1772221944.178598,34.0,244.0,-1813.0
1772221944.1865978,37.0,241.0,-1815.0
1772221944.1805642,37.0,242.0,-1810.0
1772221944.188564,35.0,241.0,-1810.0
1772221944.1805642,35.0,239.0,-1818.0
1772221944.188564,36.0,246.0,-1819.0
1772221944.186752,32.0,244.0,-1813.0
1772221944.194752,30.0,233.0,-1812.0
1772221944.1956973,29.0,233.0,-1819.0
1772221944.2036972,27.0,236.0,-1823.0
1772221944.2028687,29.0,233.0,-1819.0
1772221944.2108686,25.0,231.0,-1818.0
1772221944.2262113,23.0,232.0,-1823.0
1772221944.2342112,24.0,232.0,-1829.0
1772221944.227732,23.0,232.0,-1826.0
1772221944.2357318,21.0,233.0,-1823.0
1772221944.2467382,20.0,231.0,-1829.0
1772221944.254738,19.0,231.0,-1836.0
1772221944.2740035,21.0,236.0,-1832.0
1772221944.2820034,22.0,237.0,-1829.0
1772221944.2740035,22.0,234.0,-1833.0
1772221944.2820034,24.0,230.0,-1840.0
1772221944.2740035,25.0,229.0,-1836.0
1772221944.2820034,19.0,239.0,-1830.0
1772221944.276017,25.0,241.0,-1832.0
1772221944.2840168,25.0,237.0,-1841.0
1772221944.2766573,23.0,233.0,-1840.0
1772221944.2846572,23.0,233.0,-1834.0
1772221944.2766573,22.0,232.0,-1831.0
1772221944.2846572,19.0,231.0,-1840.0
1772221944.2843606,19.0,231.0,-1843.0
1772221944.2923605,17.0,231.0,-1838.0
1772221944.2904875,16.0,230.0,-1836.0
1772221944.2984874,16.0,230.0,-1843.0
1772221944.3028252,13.0,229.0,-1846.0
1772221944.310825,10.0,225.0,-1843.0
1772221944.320817,9.0,220.0,-1840.0
1772221944.328817,6.0,216.0,-1844.0
1772221944.3223433,4.0,215.0,-1847.0
1772221944.3303432,3.0,216.0,-1845.0
1772221944.3239324,4.0,215.0,-1840.0
1772221944.3319323,2.0,209.0,-1843.0
1772221944.3293097,4.0,208.0,-1850.0
1772221944.3373096,2.0,208.0,-1847.0
1772221944.3390198,-3.0,206.0,-1844.0
1772221944.3470197,-1.0,210.0,-1846.0
1772221944.3719811,0.0,212.0,-1852.0
1772221944.379981,-2.0,208.0,-1850.0
1772221944.3719811,-2.0,206.0,-1846.0
1772221944.379981,-4.0,205.0,-1846.0
1772221944.384845,-2.0,204.0,-1853.0
1772221944.392845,-1.0,205.0,-1854.0
1772221944.3859978,5.0,212.0,-1846.0
1772221944.3939977,-2.0,208.0,-1845.0
1772221944.3889303,-2.0,209.0,-1850.0
1772221944.3969302,3.0,216.0,-1851.0
1772221944.3979418,4.0,213.0,-1846.0
1772221944.4059417,5.0,214.0,-1842.0
1772221944.4092484,8.0,223.0,-1844.0
1772221944.4172482,7.0,230.0,-1843.0
1772221944.4092484,5.0,217.0,-1839.0
1772221944.4172482,7.0,221.0,-1837.0
1772221944.4106393,14.0,236.0,-1841.0
1772221944.4186392,10.0,235.0,-1846.0
1772221944.422651,10.0,227.0,-1843.0
1772221944.430651,13.0,227.0,-1840.0
1772221944.4297152,6.0,230.0,-1847.0
1772221944.437715,8.0,233.0,-1849.0
1772221944.434379,10.0,241.0,-1846.0
1772221944.442379,20.0,242.0,-1841.0
1772221944.4622476,25.0,235.0,-1841.0
1772221944.4702475,20.0,240.0,-1845.0
1772221944.46794,17.0,238.0,-1842.0
1772221944.47594,16.0,236.0,-1836.0
1772221944.46794,20.0,237.0,-1836.0
1772221944.47594,27.0,236.0,-1840.0
1772221944.4854443,32.0,238.0,-1840.0
1772221944.4934442,40.0,241.0,-1833.0
1772221944.4864507,49.0,250.0,-1830.0
1772221944.4944506,45.0,255.0,-1835.0
1772221944.5080829,49.0,259.0,-1836.0
1772221944.5160828,51.0,262.0,-1830.0
1772221944.5080829,61.0,267.0,-1827.0
1772221944.5160828,68.0,275.0,-1832.0
1772221944.5118897,71.0,282.0,-1833.0
1772221944.5198896,83.0,289.0,-1828.0
1772221944.5118897,89.0,294.0,-1825.0
1772221944.5198896,97.0,302.0,-1829.0
1772221944.5141654,106.0,306.0,-1834.0
1772221944.5221653,110.0,314.0,-1831.0
1772221944.5239794,118.0,313.0,-1826.0
1772221944.5319793,128.0,315.0,-1832.0
1772221944.5296426,129.0,324.0,-1837.0
1772221944.5376425,130.0,323.0,-1833.0
1772221944.5558782,131.0,322.0,-1829.0
1772221944.563878,130.0,322.0,-1832.0
1772221944.557348,131.0,323.0,-1837.0
1772221944.565348,133.0,327.0,-1834.0
1772221944.5637763,135.0,326.0,-1831.0
1772221944.5717762,136.0,321.0,-1832.0
1772221944.5689514,133.0,320.0,-1836.0
1772221944.5769513,133.0,318.0,-1834.0
1772221944.5982418,127.0,312.0,-1829.0
1772221944.6062417,123.0,311.0,-1829.0
1772221944.6161788,119.0,310.0,-1833.0
1772221944.6241786,114.0,304.0,-1833.0
1772221944.6444466,107.0,299.0,-1827.0
1772221944.6524465,105.0,296.0,-1825.0
1772221944.645455,102.0,293.0,-1831.0
1772221944.6534548,99.0,287.0,-1830.0
1772221944.646572,91.0,280.0,-1825.0
1772221944.654572,83.0,273.0,-1827.0
1772221944.6481237,82.0,272.0,-1833.0
1772221944.6561236,75.0,271.0,-1833.0
1772221944.6511767,74.0,267.0,-1828.0
1772221944.6591766,70.0,262.0,-1827.0
1772221944.6527,62.0,255.0,-1833.0
1772221944.6606998,63.0,254.0,-1836.0
1772221944.6542225,60.0,252.0,-1833.0
1772221944.6622224,50.0,251.0,-1831.0
1772221944.6547303,48.0,254.0,-1835.0
1772221944.6627302,50.0,258.0,-1839.0
1772221944.655177,44.0,248.0,-1837.0
1772221944.663177,42.0,243.0,-1833.0
1772221944.659782,44.0,240.0,-1836.0
1772221944.6677818,47.0,244.0,-1841.0
1772221944.6664484,48.0,255.0,-1842.0
1772221944.6744483,47.0,250.0,-1838.0
1772221944.6831117,44.0,243.0,-1837.0
1772221944.6911116,42.0,248.0,-1843.0
1772221944.6930847,37.0,244.0,-1843.0
1772221944.7010846,36.0,241.0,-1836.0
1772221944.6945875,33.0,237.0,-1835.0
1772221944.7025874,36.0,241.0,-1842.0
1772221944.7241013,39.0,248.0,-1843.0
1772221944.7321012,39.0,242.0,-1837.0
1772221944.7411122,35.0,237.0,-1837.0
1772221944.7491121,39.0,238.0,-1840.0
1772221944.746256,36.0,239.0,-1839.0
1772221944.754256,30.0,241.0,-1836.0
1772221944.7478793,37.0,243.0,-1834.0
1772221944.7558792,37.0,245.0,-1836.0
1772221944.749446,33.0,254.0,-1839.0
1772221944.7574458,36.0,250.0,-1835.0
1772221944.7509718,46.0,246.0,-1830.0
1772221944.7589717,45.0,249.0,-1835.0
1772221944.7525468,41.0,254.0,-1839.0
1772221944.7605467,30.0,247.0,-1835.0
1772221944.7573054,32.0,245.0,-1831.0
1772221944.7653053,41.0,255.0,-1831.0
1772221944.7622561,42.0,245.0,-1834.0
1772221944.770256,41.0,244.0,-1833.0
1772221944.7853355,34.0,249.0,-1834.0
1772221944.7933354,28.0,247.0,-1832.0
1772221944.7868586,36.0,244.0,-1838.0
1772221944.7948585,42.0,251.0,-1836.0
1772221944.7868586,42.0,252.0,-1832.0
1772221944.7948585,42.0,248.0,-1830.0
1772221944.8047836,38.0,246.0,-1835.0
1772221944.8127835,31.0,251.0,-1837.0
1772221944.8051655,41.0,248.0,-1834.0
1772221944.8131654,45.0,256.0,-1832.0
1772221944.8315802,41.0,253.0,-1836.0
1772221944.83958,38.0,248.0,-1837.0
1772221944.8315802,44.0,248.0,-1835.0
1772221944.83958,49.0,247.0,-1833.0
1772221944.8328063,43.0,254.0,-1833.0
1772221944.8408062,42.0,252.0,-1835.0
1772221944.854283,47.0,241.0,-1835.0
1772221944.862283,45.0,256.0,-1832.0
1772221944.8552883,39.0,255.0,-1833.0
1772221944.8632882,42.0,250.0,-1838.0
1772221944.8600605,43.0,250.0,-1836.0
1772221944.8680604,37.0,245.0,-1833.0
1772221944.8617134,41.0,248.0,-1836.0
1772221944.8697133,41.0,250.0,-1841.0
1772221944.8801472,39.0,252.0,-1840.0
1772221944.888147,40.0,245.0,-1837.0
1772221944.8801472,43.0,254.0,-1837.0
1772221944.888147,41.0,254.0,-1841.0
1772221944.8832002,36.0,248.0,-1841.0
1772221944.8912,40.0,248.0,-1838.0
1772221944.8924766,43.0,246.0,-1839.0
1772221944.9004765,42.0,249.0,-1842.0
1772221944.8991215,42.0,257.0,-1843.0
1772221944.9071214,40.0,249.0,-1840.0
1772221944.9098303,42.0,248.0,-1836.0
1772221944.9178302,41.0,249.0,-1841.0
1772221944.9264262,41.0,251.0,-1842.0
1772221944.934426,40.0,252.0,-1839.0
1772221944.9279473,41.0,250.0,-1838.0
1772221944.9359472,42.0,248.0,-1841.0
1772221944.9310057,41.0,252.0,-1842.0
1772221944.9390056,41.0,257.0,-1839.0
1772221944.9725955,44.0,252.0,-1838.0
1772221944.9805954,46.0,250.0,-1837.0
1772221944.973532,45.0,257.0,-1840.0
1772221944.9815319,42.0,254.0,-1840.0
1772221944.9790063,44.0,248.0,-1834.0
1772221944.9870062,43.0,245.0,-1834.0
1772221944.9810445,41.0,243.0,-1837.0
1772221944.9890444,40.0,245.0,-1838.0
1772221944.9818215,43.0,249.0,-1834.0
1772221944.9898214,43.0,248.0,-1839.0
1772221944.9834225,41.0,246.0,-1842.0
1772221944.9914224,47.0,251.0,-1845.0
1772221944.986604,39.0,242.0,-1840.0
1772221944.9946039,35.0,240.0,-1836.0
1772221944.995325,39.0,252.0,-1840.0
1772221945.003325,37.0,242.0,-1844.0
1772221945.0051289,38.0,239.0,-1838.0
1772221945.0131288,46.0,247.0,-1835.0
1772221945.0207753,42.0,250.0,-1840.0
1772221945.0287752,41.0,246.0,-1840.0
1772221945.0223007,41.0,245.0,-1835.0
1772221945.0303006,46.0,244.0,-1834.0
1772221945.0253725,40.0,246.0,-1838.0
1772221945.0333724,36.0,250.0,-1840.0
1772221945.0356333,38.0,258.0,-1836.0
1772221945.0436332,46.0,254.0,-1832.0
1772221945.0426028,40.0,246.0,-1836.0
1772221945.0506027,41.0,249.0,-1839.0
1772221945.0574288,47.0,251.0,-1835.0
1772221945.0654287,46.0,253.0,-1831.0
1772221945.0767562,44.0,255.0,-1835.0
1772221945.0847561,41.0,248.0,-1838.0
1772221945.0889275,40.0,250.0,-1840.0
1772221945.0969274,45.0,255.0,-1834.0
1772221945.0912366,46.0,256.0,-1833.0
1772221945.0992365,45.0,256.0,-1838.0
1772221945.0922441,45.0,253.0,-1839.0
1772221945.100244,44.0,253.0,-1835.0
1772221945.0950563,43.0,253.0,-1833.0
1772221945.1030562,41.0,248.0,-1840.0
1772221945.107325,43.0,250.0,-1841.0
1772221945.115325,46.0,255.0,-1834.0
1772221945.1122665,45.0,257.0,-1833.0
1772221945.1202664,47.0,255.0,-1837.0
1772221945.1153502,47.0,255.0,-1839.0
1772221945.1233501,46.0,259.0,-1837.0
1772221945.1222486,43.0,258.0,-1835.0
1772221945.1302485,45.0,257.0,-1838.0
1772221945.131014,46.0,257.0,-1840.0
1772221945.139014,47.0,255.0,-1838.0
1772221945.1395013,46.0,256.0,-1834.0
1772221945.1475012,44.0,259.0,-1836.0
1772221945.1623712,46.0,259.0,-1840.0
1772221945.170371,49.0,257.0,-1838.0
1772221945.1642058,46.0,257.0,-1830.0
1772221945.1722057,44.0,261.0,-1834.0
1772221945.164944,44.0,258.0,-1839.0
1772221945.1729438,45.0,259.0,-1837.0
1772221945.2083528,46.0,259.0,-1831.0
1772221945.2163527,47.0,257.0,-1831.0
1772221945.2083528,47.0,258.0,-1835.0
1772221945.2163527,44.0,257.0,-1836.0
1772221945.2098734,43.0,257.0,-1831.0
1772221945.2178733,45.0,253.0,-1830.0
1772221945.2303295,45.0,253.0,-1834.0
1772221945.2383294,43.0,250.0,-1835.0
1772221945.231942,41.0,249.0,-1830.0
1772221945.2399418,40.0,250.0,-1829.0
1772221945.2673886,41.0,245.0,-1834.0
1772221945.2753885,37.0,242.0,-1837.0
1772221945.2694027,36.0,241.0,-1833.0
1772221945.2774026,35.0,239.0,-1831.0
1772221945.3025239,36.0,237.0,-1833.0
1772221945.3105237,35.0,235.0,-1837.0
1772221945.312047,34.0,235.0,-1834.0
1772221945.320047,34.0,235.0,-1829.0
1772221945.3140967,35.0,235.0,-1829.0
1772221945.3220966,34.0,232.0,-1838.0
1772221945.347719,33.0,230.0,-1836.0
1772221945.3557189,32.0,230.0,-1831.0
1772221945.347719,31.0,232.0,-1833.0
1772221945.3557189,32.0,230.0,-1836.0
1772221945.347719,32.0,232.0,-1837.0
1772221945.3557189,33.0,234.0,-1833.0
1772221945.3490565,33.0,232.0,-1832.0
1772221945.3570564,32.0,233.0,-1837.0
1772221945.3490565,34.0,234.0,-1838.0
1772221945.3570564,33.0,236.0,-1834.0
1772221945.3506641,30.0,236.0,-1833.0
1772221945.358664,29.0,233.0,-1837.0
1772221945.3506641,31.0,231.0,-1837.0
1772221945.358664,32.0,234.0,-1833.0
1772221945.3517025,33.0,235.0,-1832.0
1772221945.3597023,31.0,235.0,-1836.0
1772221945.3517025,29.0,235.0,-1838.0
1772221945.3597023,28.0,235.0,-1835.0
1772221945.3517025,30.0,236.0,-1830.0
1772221945.3597023,32.0,235.0,-1834.0
1772221945.3517025,30.0,235.0,-1841.0
1772221945.3597023,30.0,237.0,-1836.0
1772221945.3531244,30.0,237.0,-1830.0
1772221945.3611243,30.0,235.0,-1833.0
1772221945.3531244,28.0,238.0,-1837.0
1772221945.3611243,28.0,238.0,-1834.0
1772221945.3551369,29.0,237.0,-1828.0
1772221945.3631368,29.0,236.0,-1830.0
1772221945.363713,27.0,236.0,-1837.0
1772221945.371713,29.0,238.0,-1834.0
1772221945.3696973,29.0,240.0,-1828.0
1772221945.3776972,28.0,239.0,-1828.0
1772221945.39547,26.0,237.0,-1833.0
1772221945.4034698,26.0,236.0,-1832.0
1772221945.3969953,26.0,235.0,-1828.0
1772221945.4049952,27.0,236.0,-1824.0
1772221945.3969953,26.0,235.0,-1829.0
1772221945.4049952,28.0,236.0,-1831.0
1772221945.4022949,30.0,237.0,-1827.0
1772221945.4102948,25.0,238.0,-1823.0
1772221945.4410427,24.0,235.0,-1826.0
1772221945.4490426,25.0,233.0,-1826.0
1772221945.4410427,24.0,235.0,-1824.0
1772221945.4490426,25.0,236.0,-1822.0
1772221945.4511309,26.0,234.0,-1824.0
1772221945.4591308,26.0,231.0,-1827.0
1772221945.4514143,26.0,232.0,-1825.0
1772221945.4594142,23.0,233.0,-1821.0
1772221945.4529347,25.0,235.0,-1822.0
1772221945.4609346,26.0,236.0,-1827.0
1772221945.4544482,25.0,235.0,-1826.0
1772221945.4624481,25.0,233.0,-1823.0
1772221945.4604993,25.0,232.0,-1823.0
1772221945.4684992,24.0,230.0,-1826.0
1772221945.4662273,23.0,232.0,-1827.0
1772221945.4742272,24.0,234.0,-1825.0
1772221945.482478,24.0,231.0,-1825.0
1772221945.4904778,23.0,230.0,-1830.0
1772221945.4880164,21.0,229.0,-1831.0
1772221945.4960163,22.0,229.0,-1826.0
1772221945.4910617,24.0,229.0,-1825.0
1772221945.4990616,24.0,230.0,-1829.0
1772221945.4992225,23.0,230.0,-1831.0
1772221945.5072224,21.0,229.0,-1828.0
1772221945.5064476,21.0,229.0,-1826.0
1772221945.5144475,21.0,228.0,-1830.0
1772221945.5234256,22.0,229.0,-1833.0
1772221945.5314255,22.0,229.0,-1829.0
1772221945.533646,23.0,230.0,-1826.0
1772221945.541646,22.0,231.0,-1827.0
1772221945.5490928,23.0,227.0,-1832.0
1772221945.5570927,23.0,223.0,-1828.0
1772221945.5506449,22.0,226.0,-1821.0
1772221945.5586448,23.0,229.0,-1826.0
1772221945.5816941,24.0,230.0,-1830.0
1772221945.589694,24.0,234.0,-1829.0
1772221945.5818317,23.0,232.0,-1828.0
1772221945.5898316,23.0,226.0,-1830.0
1772221945.5833387,24.0,225.0,-1836.0
1772221945.5913386,24.0,226.0,-1837.0
1772221945.5833387,25.0,227.0,-1831.0
1772221945.5913386,23.0,229.0,-1831.0
1772221945.5853612,23.0,230.0,-1836.0
1772221945.5933611,22.0,231.0,-1836.0
1772221945.586013,23.0,232.0,-1830.0
1772221945.594013,23.0,231.0,-1828.0
1772221945.5966167,23.0,230.0,-1834.0
1772221945.6046166,24.0,230.0,-1831.0
1772221945.6033301,25.0,229.0,-1829.0
1772221945.61133,26.0,230.0,-1829.0
1772221945.6181657,27.0,230.0,-1831.0
1772221945.6261656,27.0,231.0,-1834.0
1772221945.6288714,28.0,231.0,-1830.0
1772221945.6368713,28.0,232.0,-1827.0
1772221945.6303935,27.0,233.0,-1831.0
1772221945.6383934,27.0,235.0,-1835.0
1772221945.6349761,28.0,235.0,-1831.0
1772221945.642976,28.0,234.0,-1827.0
1772221945.6426706,30.0,233.0,-1829.0
1772221945.6506705,29.0,233.0,-1833.0
1772221945.6741974,31.0,234.0,-1830.0
1772221945.6821973,31.0,235.0,-1828.0
1772221945.6741974,30.0,237.0,-1829.0
1772221945.6821973,29.0,238.0,-1834.0
1772221945.6754487,29.0,236.0,-1833.0
1772221945.6834486,30.0,235.0,-1828.0
1772221945.6769743,32.0,234.0,-1829.0
1772221945.6849742,32.0,236.0,-1832.0
1772221945.684945,32.0,239.0,-1833.0
1772221945.692945,33.0,239.0,-1831.0
1772221945.691911,33.0,237.0,-1829.0
1772221945.6999109,32.0,236.0,-1834.0
1772221945.6994452,32.0,235.0,-1836.0
1772221945.7074451,31.0,235.0,-1832.0
1772221945.7199516,32.0,236.0,-1830.0
1772221945.7279515,33.0,236.0,-1834.0
1772221945.7214143,32.0,237.0,-1837.0
1772221945.7294142,32.0,238.0,-1832.0
1772221945.723459,33.0,238.0,-1828.0
1772221945.731459,32.0,238.0,-1831.0
1772221945.7299914,32.0,239.0,-1837.0
1772221945.7379913,32.0,238.0,-1834.0
1772221945.738618,31.0,236.0,-1830.0
1772221945.7466178,30.0,236.0,-1831.0
1772221945.7622092,31.0,237.0,-1836.0
1772221945.770209,32.0,238.0,-1833.0
1772221945.763805,32.0,238.0,-1828.0
1772221945.7718048,31.0,240.0,-1828.0
1772221945.7810278,32.0,242.0,-1830.0
1772221945.7890277,32.0,240.0,-1832.0
1772221945.7813523,32.0,237.0,-1829.0
1772221945.7893522,31.0,237.0,-1829.0
1772221945.8164818,31.0,238.0,-1834.0
1772221945.8244817,31.0,238.0,-1832.0
1772221945.8221674,30.0,239.0,-1828.0
1772221945.8301673,30.0,239.0,-1825.0
1772221945.8221674,30.0,237.0,-1829.0
1772221945.8301673,29.0,238.0,-1833.0
1772221945.8231745,28.0,239.0,-1828.0
1772221945.8311744,30.0,241.0,-1825.0
1772221945.823658,30.0,240.0,-1829.0
1772221945.831658,30.0,240.0,-1831.0
1772221945.823658,30.0,240.0,-1826.0
1772221945.831658,30.0,239.0,-1822.0
1772221945.8256712,29.0,239.0,-1826.0
1772221945.833671,28.0,239.0,-1829.0
1772221945.8395672,29.0,239.0,-1826.0
1772221945.847567,30.0,239.0,-1821.0
1772221945.8584325,29.0,238.0,-1824.0
1772221945.8664324,29.0,238.0,-1829.0
1772221945.8791826,29.0,237.0,-1826.0
1772221945.8871825,30.0,238.0,-1820.0
1772221945.8807523,30.0,240.0,-1822.0
1772221945.8887522,30.0,241.0,-1825.0
1772221945.9048693,31.0,241.0,-1825.0
1772221945.9128692,34.0,243.0,-1821.0
1772221945.9069307,33.0,242.0,-1820.0
1772221945.9149306,34.0,241.0,-1825.0
1772221945.931301,34.0,242.0,-1825.0
1772221945.939301,33.0,243.0,-1820.0
1772221945.9340665,34.0,244.0,-1818.0
1772221945.9420664,36.0,244.0,-1825.0
1772221945.9504094,36.0,245.0,-1827.0
1772221945.9584093,37.0,245.0,-1822.0
1772221945.9504094,38.0,245.0,-1821.0
1772221945.9584093,37.0,247.0,-1825.0
1772221945.950901,38.0,247.0,-1828.0
1772221945.958901,38.0,246.0,-1824.0
1772221945.950901,39.0,247.0,-1822.0
1772221945.958901,39.0,247.0,-1824.0
1772221945.950901,39.0,248.0,-1828.0
1772221945.958901,39.0,247.0,-1824.0
1772221945.9524114,39.0,247.0,-1819.0
1772221945.9604113,39.0,248.0,-1822.0
1772221945.9537032,40.0,251.0,-1829.0
1772221945.961703,41.0,249.0,-1825.0
1772221945.9644759,42.0,249.0,-1820.0
1772221945.9724758,42.0,251.0,-1823.0
1772221945.9654813,41.0,249.0,-1828.0
1772221945.9734812,41.0,247.0,-1827.0
1772221945.9695704,41.0,247.0,-1821.0
1772221945.9775703,40.0,249.0,-1820.0
1772221945.9782753,40.0,248.0,-1825.0
1772221945.9862752,41.0,247.0,-1827.0
1772221945.9974134,41.0,247.0,-1822.0
1772221946.0054133,41.0,248.0,-1820.0
1772221945.9974134,42.0,249.0,-1827.0
1772221946.0054133,42.0,249.0,-1828.0
1772221946.0186896,41.0,249.0,-1822.0
1772221946.0266895,41.0,249.0,-1818.0
1772221946.021461,41.0,250.0,-1823.0
1772221946.029461,41.0,248.0,-1827.0
1772221946.046183,42.0,247.0,-1824.0
1772221946.054183,41.0,248.0,-1820.0
1772221946.04821,42.0,249.0,-1822.0
1772221946.0562098,42.0,251.0,-1826.0
1772221946.0489028,43.0,250.0,-1824.0
1772221946.0569026,42.0,248.0,-1820.0
1772221946.0489028,42.0,247.0,-1822.0
1772221946.0569026,42.0,248.0,-1827.0
1772221946.05047,42.0,249.0,-1824.0
1772221946.05847,43.0,250.0,-1820.0
1772221946.0591063,43.0,251.0,-1823.0
1772221946.0671062,43.0,250.0,-1827.0
1772221946.0681136,43.0,248.0,-1826.0
1772221946.0761135,43.0,248.0,-1821.0
1772221946.083969,42.0,248.0,-1821.0
1772221946.091969,42.0,247.0,-1826.0
1772221946.0995297,43.0,247.0,-1827.0
1772221946.1075296,42.0,249.0,-1821.0
1772221946.0995297,45.0,251.0,-1819.0
1772221946.1075296,47.0,250.0,-1824.0
1772221946.1019251,46.0,248.0,-1824.0
1772221946.109925,44.0,248.0,-1822.0
1772221946.1090431,42.0,249.0,-1818.0
1772221946.117043,42.0,251.0,-1819.0
1772221946.1142669,45.0,252.0,-1820.0
1772221946.1222668,43.0,250.0,-1819.0
1772221946.1398582,42.0,248.0,-1812.0
1772221946.1478581,45.0,247.0,-1815.0
1772221946.1429167,47.0,248.0,-1821.0
1772221946.1509166,47.0,250.0,-1821.0
1772221946.1444654,45.0,249.0,-1818.0
1772221946.1524653,43.0,248.0,-1821.0
1772221946.1482975,41.0,250.0,-1825.0
1772221946.1562974,42.0,253.0,-1823.0
1772221946.1555822,45.0,251.0,-1818.0
1772221946.163582,46.0,250.0,-1819.0
1772221946.1617496,48.0,249.0,-1823.0
1772221946.1697495,43.0,248.0,-1821.0
1772221946.1884284,41.0,247.0,-1814.0
1772221946.1964283,42.0,247.0,-1814.0
1772221946.1946862,41.0,247.0,-1820.0
1772221946.202686,41.0,247.0,-1821.0
1772221946.1946862,43.0,245.0,-1816.0
1772221946.202686,45.0,248.0,-1813.0
1772221946.1962833,48.0,252.0,-1818.0
1772221946.2042832,46.0,250.0,-1821.0
1772221946.2036564,39.0,246.0,-1817.0
1772221946.2116563,39.0,249.0,-1813.0
1772221946.2098534,42.0,248.0,-1818.0
1772221946.2178533,44.0,248.0,-1821.0
1772221946.2385297,46.0,250.0,-1816.0
1772221946.2465296,40.0,250.0,-1812.0
1772221946.247092,38.0,248.0,-1815.0
1772221946.255092,41.0,246.0,-1819.0
1772221946.2547572,44.0,247.0,-1817.0
1772221946.262757,47.0,246.0,-1810.0
1772221946.2563052,44.0,246.0,-1815.0
1772221946.264305,39.0,245.0,-1822.0
1772221946.2819433,38.0,246.0,-1819.0
1772221946.2899432,38.0,248.0,-1814.0
1772221946.2827725,42.0,253.0,-1813.0
1772221946.2907724,39.0,251.0,-1819.0
1772221946.2827725,43.0,242.0,-1817.0
1772221946.2907724,41.0,246.0,-1812.0
1772221946.2827725,40.0,249.0,-1814.0
1772221946.2907724,44.0,245.0,-1817.0
1772221946.2848098,40.0,246.0,-1818.0
1772221946.2928097,37.0,248.0,-1812.0
1772221946.2945628,43.0,247.0,-1809.0
1772221946.3025627,39.0,245.0,-1815.0
1772221946.299189,39.0,246.0,-1819.0
1772221946.307189,38.0,247.0,-1814.0
1772221946.3073728,37.0,250.0,-1810.0
1772221946.3153727,39.0,247.0,-1815.0
1772221946.329618,41.0,242.0,-1818.0
1772221946.3376179,43.0,244.0,-1813.0
1772221946.3307154,38.0,246.0,-1810.0
1772221946.3387153,37.0,243.0,-1813.0
1772221946.3314621,37.0,242.0,-1817.0
1772221946.339462,42.0,244.0,-1813.0
1772221946.3392382,42.0,245.0,-1808.0
1772221946.347238,36.0,250.0,-1812.0
1772221946.3471012,35.0,250.0,-1815.0
1772221946.355101,39.0,248.0,-1815.0
1772221946.3841815,41.0,244.0,-1809.0
1772221946.3921814,42.0,243.0,-1810.0
1772221946.385743,36.0,243.0,-1816.0
1772221946.3937428,36.0,243.0,-1817.0
1772221946.3964562,39.0,247.0,-1812.0
1772221946.4044561,38.0,245.0,-1810.0
1772221946.3982143,39.0,243.0,-1816.0
1772221946.4062142,41.0,245.0,-1817.0
1772221946.3997622,38.0,245.0,-1813.0
1772221946.407762,32.0,246.0,-1812.0
1772221946.4012892,37.0,246.0,-1816.0
1772221946.4092891,44.0,241.0,-1818.0
1772221946.4036214,38.0,239.0,-1816.0
1772221946.4116213,35.0,242.0,-1813.0
1772221946.4163406,39.0,245.0,-1817.0
1772221946.4243405,40.0,245.0,-1821.0
1772221946.4236538,36.0,240.0,-1819.0
1772221946.4316537,36.0,244.0,-1814.0
1772221946.4267004,42.0,244.0,-1819.0
1772221946.4347003,37.0,240.0,-1824.0
1772221946.434354,35.0,240.0,-1821.0
1772221946.442354,39.0,243.0,-1817.0
1772221946.4433753,43.0,242.0,-1820.0
1772221946.4513752,39.0,242.0,-1825.0
1772221946.4516923,36.0,242.0,-1823.0
1772221946.4596922,41.0,243.0,-1816.0
1772221946.4729586,43.0,243.0,-1820.0
1772221946.4809585,35.0,242.0,-1826.0
1772221946.4748251,38.0,239.0,-1826.0
1772221946.482825,39.0,240.0,-1820.0
1772221946.5255163,38.0,242.0,-1819.0
1772221946.5335162,35.0,244.0,-1825.0
1772221946.5278656,39.0,240.0,-1826.0
1772221946.5358655,41.0,241.0,-1818.0
1772221946.564067,37.0,240.0,-1818.0
1772221946.5720668,38.0,242.0,-1824.0
1772221946.5655932,36.0,243.0,-1826.0
1772221946.5735931,36.0,242.0,-1821.0
1772221946.5718637,37.0,245.0,-1817.0
1772221946.5798635,36.0,241.0,-1824.0
1772221946.5725212,34.0,240.0,-1827.0
1772221946.580521,38.0,243.0,-1822.0
1772221946.5737436,39.0,244.0,-1818.0
1772221946.5817435,37.0,243.0,-1822.0
1772221946.5793853,39.0,241.0,-1826.0
1772221946.5873852,38.0,242.0,-1821.0
1772221946.5793853,38.0,244.0,-1817.0
1772221946.5873852,37.0,245.0,-1818.0
1772221946.5808215,38.0,246.0,-1823.0
1772221946.5888214,41.0,248.0,-1821.0
1772221946.5808215,39.0,249.0,-1819.0
1772221946.5888214,39.0,245.0,-1818.0
1772221946.582348,39.0,245.0,-1821.0
1772221946.590348,39.0,244.0,-1819.0
1772221946.582348,41.0,244.0,-1816.0
1772221946.590348,39.0,243.0,-1814.0
1772221946.5840926,33.0,244.0,-1818.0
1772221946.5920925,36.0,247.0,-1820.0
1772221946.586167,40.0,246.0,-1815.0
1772221946.594167,39.0,243.0,-1814.0
1772221946.6106572,37.0,245.0,-1818.0
1772221946.618657,36.0,246.0,-1820.0
1772221946.6121633,38.0,244.0,-1816.0
1772221946.6201632,40.0,242.0,-1812.0
1772221946.6299925,38.0,243.0,-1815.0
1772221946.6379924,35.0,245.0,-1819.0
1772221946.6343057,36.0,246.0,-1813.0
1772221946.6423056,37.0,246.0,-1811.0
1772221946.6363504,39.0,246.0,-1814.0
1772221946.6443503,39.0,247.0,-1818.0
1772221946.6386182,37.0,244.0,-1815.0
1772221946.6466181,38.0,243.0,-1810.0
1772221946.6578455,39.0,245.0,-1813.0
1772221946.6658454,39.0,246.0,-1818.0
1772221946.6578455,39.0,245.0,-1816.0
1772221946.6658454,37.0,243.0,-1810.0
1772221946.6593635,35.0,244.0,-1810.0
1772221946.6673634,35.0,244.0,-1816.0
1772221946.6670332,37.0,244.0,-1817.0
1772221946.675033,38.0,246.0,-1809.0
1772221946.6748264,39.0,246.0,-1807.0
1772221946.6828263,39.0,243.0,-1811.0
1772221946.685009,37.0,245.0,-1811.0
1772221946.693009,36.0,247.0,-1805.0
1772221946.7047563,37.0,245.0,-1803.0
1772221946.7127562,40.0,245.0,-1808.0
1772221946.706347,39.0,245.0,-1809.0
1772221946.714347,36.0,244.0,-1805.0
1772221946.7337034,37.0,246.0,-1806.0
1772221946.7417033,34.0,245.0,-1812.0
1772221946.752238,34.0,245.0,-1816.0
1772221946.760238,36.0,245.0,-1812.0
1772221946.7524908,35.0,243.0,-1807.0
1772221946.7604907,35.0,243.0,-1811.0
1772221946.7524908,37.0,243.0,-1817.0
1772221946.7604907,38.0,243.0,-1812.0
1772221946.7542732,37.0,245.0,-1806.0
1772221946.762273,35.0,245.0,-1810.0
1772221946.7549665,35.0,246.0,-1814.0
1772221946.7629664,36.0,245.0,-1812.0
1772221946.7580554,39.0,246.0,-1807.0
1772221946.7660553,40.0,247.0,-1809.0
1772221946.7626584,39.0,246.0,-1814.0
1772221946.7706583,35.0,245.0,-1813.0
1772221946.770589,34.0,245.0,-1806.0
1772221946.778589,33.0,245.0,-1808.0
1772221946.7817278,34.0,245.0,-1814.0
1772221946.7897277,37.0,245.0,-1813.0
1772221946.8007774,38.0,245.0,-1808.0
1772221946.8087773,42.0,244.0,-1808.0
1772221946.8083277,39.0,245.0,-1813.0
1772221946.8163276,37.0,246.0,-1815.0
1772221946.8083277,35.0,246.0,-1810.0
1772221946.8163276,36.0,245.0,-1807.0
1772221946.810854,39.0,244.0,-1813.0
1772221946.8188539,38.0,245.0,-1815.0
1772221946.8186378,33.0,246.0,-1812.0
1772221946.8266377,29.0,245.0,-1809.0
1772221946.8495748,34.0,244.0,-1813.0
1772221946.8575747,37.0,243.0,-1816.0
1772221946.8515918,38.0,243.0,-1814.0
1772221946.8595917,38.0,243.0,-1809.0
1772221946.8522396,36.0,244.0,-1811.0
1772221946.8602395,35.0,243.0,-1816.0
1772221946.8537939,35.0,244.0,-1816.0
1772221946.8617938,36.0,244.0,-1812.0
1772221946.8581975,38.0,244.0,-1813.0
1772221946.8661973,37.0,243.0,-1817.0
1772221946.8680313,40.0,244.0,-1817.0
1772221946.8760312,41.0,243.0,-1813.0
1772221946.8907254,38.0,243.0,-1812.0
1772221946.8987253,37.0,245.0,-1819.0
1772221946.8927238,39.0,243.0,-1819.0
1772221946.9007237,40.0,244.0,-1815.0
1772221946.8927238,38.0,246.0,-1813.0
1772221946.9007237,39.0,245.0,-1819.0
1772221946.8984442,40.0,239.0,-1820.0
1772221946.906444,36.0,239.0,-1815.0
1772221946.9057462,35.0,241.0,-1813.0
1772221946.913746,37.0,243.0,-1816.0
1772221946.9154382,37.0,245.0,-1820.0
1772221946.923438,37.0,245.0,-1815.0
1772221946.9367895,41.0,246.0,-1812.0
1772221946.9447894,39.0,245.0,-1814.0
1772221946.93831,37.0,243.0,-1817.0
1772221946.9463098,35.0,243.0,-1815.0
1772221946.9582434,34.0,243.0,-1809.0
1772221946.9662433,34.0,244.0,-1811.0
1772221946.9592483,37.0,244.0,-1819.0
1772221946.9672482,36.0,242.0,-1816.0
1772221946.9608495,37.0,243.0,-1812.0
1772221946.9688494,37.0,245.0,-1812.0
1772221946.9834683,35.0,243.0,-1816.0
1772221946.9914682,35.0,243.0,-1815.0
1772221946.9834683,35.0,243.0,-1810.0
1772221946.9914682,34.0,243.0,-1810.0
1772221946.984982,37.0,245.0,-1815.0
1772221946.992982,36.0,245.0,-1816.0
1772221946.986518,36.0,244.0,-1812.0
1772221946.9945178,37.0,243.0,-1808.0
1772221946.9941928,38.0,244.0,-1813.0
1772221947.0021927,36.0,246.0,-1814.0
1772221947.0027556,36.0,244.0,-1811.0
1772221947.0107555,36.0,242.0,-1808.0
1772221947.01965,37.0,243.0,-1813.0
1772221947.0276499,38.0,244.0,-1814.0
1772221947.032195,40.0,245.0,-1810.0
1772221947.040195,36.0,245.0,-1808.0
1772221947.0394158,34.0,246.0,-1811.0
1772221947.0474157,35.0,245.0,-1814.0
1772221947.0394158,37.0,245.0,-1812.0
1772221947.0474157,40.0,247.0,-1809.0
1772221947.0429657,41.0,247.0,-1810.0
1772221947.0509655,37.0,244.0,-1814.0
1772221947.0507498,35.0,241.0,-1812.0
1772221947.0587497,36.0,243.0,-1809.0
1772221947.083659,38.0,245.0,-1810.0
1772221947.0916588,40.0,245.0,-1814.0
1772221947.083659,39.0,246.0,-1814.0
1772221947.0916588,40.0,246.0,-1809.0
1772221947.102592,40.0,246.0,-1808.0
1772221947.110592,38.0,246.0,-1814.0
1772221947.1052387,37.0,246.0,-1815.0
1772221947.1132386,39.0,245.0,-1809.0
1772221947.121791,41.0,247.0,-1807.0
1772221947.1297908,40.0,248.0,-1812.0
1772221947.123006,39.0,246.0,-1814.0
1772221947.131006,40.0,247.0,-1809.0
1772221947.1245632,40.0,247.0,-1807.0
1772221947.132563,40.0,247.0,-1812.0
1772221947.1245632,43.0,247.0,-1813.0
1772221947.132563,42.0,245.0,-1809.0
1772221947.125813,39.0,247.0,-1807.0
1772221947.133813,38.0,247.0,-1810.0
1772221947.151651,41.0,246.0,-1814.0
1772221947.1596508,40.0,245.0,-1809.0
1772221947.152688,36.0,247.0,-1803.0
1772221947.160688,41.0,248.0,-1806.0
1772221947.1702783,40.0,248.0,-1811.0
1772221947.1782782,40.0,248.0,-1810.0
1772221947.1702783,40.0,248.0,-1806.0
1772221947.1782782,40.0,248.0,-1806.0
1772221947.1718023,44.0,247.0,-1811.0
1772221947.1798022,43.0,248.0,-1810.0
1772221947.1718023,37.0,249.0,-1807.0
1772221947.1798022,39.0,250.0,-1806.0
1772221947.1954672,40.0,252.0,-1810.0
1772221947.2034671,41.0,248.0,-1809.0
1772221947.198146,40.0,246.0,-1805.0
1772221947.206146,37.0,246.0,-1804.0
1772221947.2245193,40.0,249.0,-1809.0
1772221947.2325191,43.0,249.0,-1811.0
1772221947.2261236,40.0,249.0,-1807.0
1772221947.2341235,40.0,249.0,-1804.0
1772221947.2287624,40.0,249.0,-1807.0
1772221947.2367623,42.0,251.0,-1812.0
1772221947.2303224,41.0,251.0,-1807.0
1772221947.2383223,42.0,250.0,-1802.0
1772221947.2334054,42.0,250.0,-1805.0
1772221947.2414052,40.0,250.0,-1811.0
1772221947.2349482,42.0,251.0,-1809.0
1772221947.242948,43.0,251.0,-1803.0
1772221947.2431598,44.0,252.0,-1806.0
1772221947.2511597,46.0,252.0,-1810.0
1772221947.2653432,48.0,251.0,-1809.0
1772221947.273343,47.0,254.0,-1804.0
1772221947.2653432,46.0,257.0,-1804.0
1772221947.273343,50.0,257.0,-1808.0
1772221947.2716026,57.0,260.0,-1806.0
1772221947.2796025,57.0,259.0,-1802.0
1772221947.2743423,53.0,259.0,-1802.0
1772221947.2823422,53.0,259.0,-1808.0
1772221947.2839048,53.0,261.0,-1809.0
1772221947.2919047,52.0,260.0,-1806.0
1772221947.2899227,52.0,261.0,-1807.0
1772221947.2979226,56.0,259.0,-1810.0
1772221947.3219798,53.0,259.0,-1814.0
1772221947.3299797,51.0,258.0,-1810.0
1772221947.324128,48.0,258.0,-1807.0
1772221947.3321278,48.0,259.0,-1812.0
1772221947.334799,52.0,260.0,-1815.0
1772221947.342799,54.0,260.0,-1811.0
1772221947.3373365,50.0,260.0,-1806.0
1772221947.3453364,49.0,260.0,-1809.0
1772221947.345699,51.0,260.0,-1813.0
1772221947.353699,52.0,260.0,-1810.0
1772221947.3565295,50.0,260.0,-1807.0
1772221947.3645294,52.0,257.0,-1809.0
1772221947.3565295,54.0,260.0,-1812.0
1772221947.3645294,51.0,260.0,-1809.0
1772221947.3590443,52.0,259.0,-1806.0
1772221947.3670442,53.0,258.0,-1809.0
1772221947.3658109,49.0,257.0,-1813.0
1772221947.3738108,46.0,258.0,-1811.0
1772221947.370336,51.0,258.0,-1807.0
1772221947.378336,51.0,258.0,-1808.0
1772221947.3795097,50.0,259.0,-1811.0
1772221947.3875096,49.0,260.0,-1812.0
1772221947.402326,51.0,259.0,-1808.0
1772221947.410326,54.0,258.0,-1806.0
1772221947.4038465,51.0,258.0,-1811.0
1772221947.4118464,53.0,258.0,-1812.0
1772221947.4038465,53.0,258.0,-1808.0
1772221947.4118464,51.0,259.0,-1805.0
1772221947.4099512,50.0,260.0,-1811.0
1772221947.417951,53.0,259.0,-1813.0
1772221947.4340682,56.0,259.0,-1810.0
1772221947.442068,47.0,257.0,-1805.0
1772221947.436543,50.0,256.0,-1810.0
1772221947.444543,51.0,256.0,-1812.0
1772221947.4600105,52.0,257.0,-1811.0
1772221947.4680104,53.0,258.0,-1806.0
1772221947.4656096,55.0,259.0,-1808.0
1772221947.4736094,52.0,260.0,-1811.0
1772221947.4656096,53.0,259.0,-1810.0
1772221947.4736094,54.0,259.0,-1805.0
1772221947.4669702,50.0,257.0,-1806.0
1772221947.47497,50.0,254.0,-1811.0
1772221947.4684906,52.0,253.0,-1809.0
1772221947.4764905,59.0,253.0,-1804.0
1772221947.4792712,52.0,255.0,-1805.0
1772221947.487271,43.0,253.0,-1809.0
1772221947.482664,45.0,250.0,-1808.0
1772221947.490664,49.0,250.0,-1804.0
1772221947.490952,48.0,249.0,-1802.0
1772221947.498952,46.0,248.0,-1808.0
1772221947.500094,48.0,247.0,-1810.0
1772221947.5080938,50.0,246.0,-1805.0
1772221947.5072002,48.0,244.0,-1802.0
1772221947.5152001,40.0,244.0,-1806.0
1772221947.5212808,44.0,244.0,-1810.0
1772221947.5292807,46.0,242.0,-1806.0
1772221947.526449,47.0,241.0,-1802.0
1772221947.5344489,46.0,241.0,-1804.0
1772221947.5310242,45.0,243.0,-1810.0
1772221947.539024,45.0,243.0,-1807.0
1772221947.5711265,45.0,242.0,-1803.0
1772221947.5791264,47.0,243.0,-1805.0
1772221947.5723107,46.0,245.0,-1810.0
1772221947.5803106,44.0,244.0,-1808.0
1772221947.576889,47.0,242.0,-1803.0
1772221947.584889,46.0,243.0,-1803.0
1772221947.5784202,44.0,243.0,-1808.0
1772221947.58642,43.0,241.0,-1807.0
1772221947.5830078,44.0,242.0,-1802.0
1772221947.5910077,49.0,244.0,-1802.0
1772221947.5830078,49.0,244.0,-1808.0
1772221947.5910077,49.0,239.0,-1808.0
1772221947.5924003,45.0,240.0,-1801.0
1772221947.6004002,40.0,241.0,-1798.0
1772221947.603614,44.0,242.0,-1806.0
1772221947.611614,50.0,243.0,-1807.0
1772221947.6051319,54.0,248.0,-1804.0
1772221947.6131318,52.0,243.0,-1800.0
1772221947.61185,46.0,241.0,-1802.0
1772221947.61985,44.0,240.0,-1805.0
1772221947.6180205,46.0,243.0,-1802.0
1772221947.6260204,45.0,244.0,-1797.0
1772221947.627217,48.0,244.0,-1799.0
1772221947.635217,46.0,245.0,-1805.0
1772221947.6357186,44.0,247.0,-1803.0
1772221947.6437185,49.0,244.0,-1796.0
1772221947.6430326,51.0,242.0,-1802.0
1772221947.6510324,49.0,244.0,-1807.0
1772221947.6770084,43.0,244.0,-1803.0
1772221947.6850083,45.0,243.0,-1798.0
1772221947.6770084,47.0,246.0,-1799.0
1772221947.6850083,47.0,245.0,-1805.0
1772221947.6943674,50.0,243.0,-1805.0
1772221947.7023673,44.0,244.0,-1799.0
1772221947.7117054,46.0,244.0,-1798.0
1772221947.7197053,49.0,245.0,-1803.0
1772221947.713221,40.0,245.0,-1804.0
1772221947.721221,38.0,246.0,-1799.0
1772221947.713221,45.0,247.0,-1798.0
1772221947.721221,49.0,245.0,-1803.0
1772221947.7145536,44.0,242.0,-1804.0
1772221947.7225535,47.0,247.0,-1800.0
1772221947.7145536,45.0,247.0,-1795.0
1772221947.7225535,36.0,244.0,-1800.0
1772221947.716078,42.0,245.0,-1804.0
1772221947.724078,43.0,250.0,-1801.0
1772221947.722261,41.0,249.0,-1796.0
1772221947.7302608,42.0,244.0,-1797.0
1772221947.7309706,41.0,241.0,-1803.0
1772221947.7389705,43.0,243.0,-1801.0
1772221947.7394874,41.0,247.0,-1797.0
1772221947.7474873,36.0,248.0,-1798.0
1772221947.760826,39.0,246.0,-1803.0
1772221947.768826,42.0,243.0,-1801.0
1772221947.767484,40.0,246.0,-1796.0
1772221947.7754838,37.0,250.0,-1799.0
1772221947.767484,38.0,247.0,-1804.0
1772221947.7754838,42.0,242.0,-1803.0
1772221947.8037102,43.0,243.0,-1798.0
1772221947.8117101,42.0,245.0,-1798.0
1772221947.8037102,37.0,248.0,-1803.0
1772221947.8117101,34.0,247.0,-1805.0
1772221947.8294356,38.0,245.0,-1798.0
1772221947.8374355,40.0,244.0,-1797.0
1772221947.856752,40.0,245.0,-1802.0
1772221947.8647518,38.0,241.0,-1804.0
1772221947.872074,32.0,243.0,-1800.0
1772221947.8800738,34.0,243.0,-1798.0
1772221947.873172,37.0,243.0,-1804.0
1772221947.881172,38.0,243.0,-1808.0
1772221947.8739078,40.0,245.0,-1802.0
1772221947.8819077,37.0,245.0,-1799.0
1772221947.8769643,35.0,243.0,-1805.0
1772221947.8849642,37.0,243.0,-1808.0
1772221947.8769643,38.0,243.0,-1803.0
1772221947.8849642,38.0,245.0,-1799.0
1772221947.878422,40.0,246.0,-1801.0
1772221947.886422,43.0,248.0,-1804.0
1772221947.8797023,36.0,247.0,-1805.0
1772221947.8877022,37.0,245.0,-1802.0
1772221947.8797023,38.0,245.0,-1803.0
1772221947.8877022,38.0,244.0,-1809.0
1772221947.897369,37.0,245.0,-1809.0
1772221947.9053688,37.0,246.0,-1804.0
1772221947.897369,37.0,246.0,-1805.0
1772221947.9053688,39.0,245.0,-1812.0
1772221947.897369,39.0,244.0,-1810.0
1772221947.9053688,41.0,245.0,-1804.0
1772221947.9101305,37.0,245.0,-1803.0
1772221947.9181304,35.0,245.0,-1807.0
1772221947.911642,38.0,244.0,-1811.0
1772221947.919642,40.0,243.0,-1804.0
1772221947.9444315,37.0,244.0,-1801.0
1772221947.9524314,37.0,245.0,-1806.0
1772221947.9444315,39.0,244.0,-1809.0
1772221947.9524314,39.0,244.0,-1804.0
1772221947.9454317,40.0,246.0,-1798.0
1772221947.9534316,42.0,244.0,-1801.0
1772221947.9459412,40.0,244.0,-1805.0
1772221947.953941,38.0,245.0,-1804.0
1772221947.947468,39.0,245.0,-1798.0
1772221947.955468,42.0,244.0,-1798.0
1772221947.947468,43.0,245.0,-1804.0
1772221947.955468,40.0,248.0,-1803.0
1772221947.9560053,37.0,247.0,-1798.0
1772221947.9640052,38.0,244.0,-1798.0
1772221947.962721,40.0,244.0,-1805.0
1772221947.970721,39.0,244.0,-1803.0
1772221947.9715483,41.0,246.0,-1798.0
1772221947.9795482,42.0,245.0,-1797.0
1772221947.9875402,41.0,244.0,-1804.0
1772221947.9955401,42.0,246.0,-1805.0
1772221947.9931462,42.0,246.0,-1798.0
1772221948.001146,41.0,246.0,-1798.0
1772221948.0035253,39.0,244.0,-1803.0
1772221948.0115252,41.0,245.0,-1805.0
1772221948.0042765,43.0,246.0,-1800.0
1772221948.0122764,43.0,247.0,-1796.0
1772221948.038521,40.0,248.0,-1802.0
1772221948.046521,41.0,247.0,-1806.0
1772221948.038521,42.0,246.0,-1801.0
1772221948.046521,42.0,245.0,-1797.0
1772221948.0503225,41.0,246.0,-1801.0
1772221948.0583224,40.0,248.0,-1804.0
1772221948.0519085,42.0,247.0,-1801.0
1772221948.0599084,42.0,248.0,-1799.0
1772221948.0534365,44.0,245.0,-1801.0
1772221948.0614364,47.0,247.0,-1806.0
1772221948.0549815,41.0,247.0,-1805.0
1772221948.0629814,41.0,247.0,-1797.0
1772221948.0616565,42.0,248.0,-1801.0
1772221948.0696564,42.0,249.0,-1805.0
1772221948.0679,46.0,247.0,-1803.0
1772221948.0758998,44.0,247.0,-1800.0
1772221948.0855827,42.0,249.0,-1799.0
1772221948.0935826,39.0,249.0,-1804.0
1772221948.0855827,40.0,247.0,-1805.0
1772221948.0935826,44.0,246.0,-1800.0
1772221948.0916126,45.0,247.0,-1798.0
1772221948.0996125,46.0,248.0,-1803.0
1772221948.1008894,45.0,248.0,-1805.0
1772221948.1088893,45.0,250.0,-1799.0
1772221948.1071415,43.0,248.0,-1799.0
1772221948.1151414,42.0,247.0,-1804.0
1772221948.1318865,41.0,248.0,-1806.0
1772221948.1398864,43.0,248.0,-1803.0
1772221948.1318865,47.0,248.0,-1799.0
1772221948.1398864,46.0,248.0,-1801.0
1772221948.1471279,43.0,247.0,-1805.0
1772221948.1551278,44.0,248.0,-1801.0
1772221948.1487296,44.0,249.0,-1798.0
1772221948.1567295,45.0,249.0,-1802.0
1772221948.1796749,46.0,248.0,-1805.0
1772221948.1876748,49.0,248.0,-1804.0
1772221948.1796749,43.0,249.0,-1800.0
1772221948.1876748,43.0,250.0,-1799.0
1772221948.1796749,45.0,250.0,-1804.0
1772221948.1876748,45.0,249.0,-1803.0
1772221948.1816883,46.0,251.0,-1796.0
1772221948.1896882,45.0,249.0,-1799.0
1772221948.1823802,45.0,247.0,-1803.0
1772221948.19038,45.0,247.0,-1805.0
1772221948.1869256,46.0,248.0,-1801.0
1772221948.1949255,47.0,250.0,-1799.0
1772221948.195197,45.0,252.0,-1803.0
1772221948.203197,45.0,251.0,-1805.0
1772221948.2042544,49.0,251.0,-1801.0
1772221948.2122543,47.0,249.0,-1798.0
1772221948.22525,44.0,249.0,-1802.0
1772221948.23325,45.0,250.0,-1805.0
1772221948.2344496,45.0,248.0,-1801.0
1772221948.2424495,43.0,248.0,-1797.0
1772221948.2344496,43.0,248.0,-1801.0
1772221948.2424495,45.0,248.0,-1804.0
1772221948.235716,47.0,247.0,-1799.0
1772221948.243716,46.0,250.0,-1795.0
1772221948.271617,44.0,251.0,-1800.0
1772221948.2796168,44.0,248.0,-1803.0
1772221948.271617,44.0,247.0,-1801.0
1772221948.2796168,46.0,248.0,-1796.0
1772221948.284441,45.0,249.0,-1799.0
1772221948.292441,43.0,250.0,-1801.0
1772221948.2859926,42.0,247.0,-1802.0
1772221948.2939925,46.0,248.0,-1799.0
1772221948.2880094,48.0,251.0,-1797.0
1772221948.2960093,45.0,250.0,-1802.0
1772221948.288704,41.0,246.0,-1803.0
1772221948.2967038,41.0,247.0,-1797.0
1772221948.2917376,43.0,249.0,-1795.0
1772221948.2997375,46.0,250.0,-1799.0
1772221948.3008869,46.0,248.0,-1801.0
1772221948.3088868,45.0,247.0,-1797.0
1772221948.3185632,46.0,248.0,-1795.0
1772221948.3265631,44.0,250.0,-1799.0
1772221948.3201365,44.0,249.0,-1802.0
1772221948.3281364,43.0,247.0,-1796.0
1772221948.3234456,43.0,247.0,-1795.0
1772221948.3314455,43.0,248.0,-1796.0
1772221948.3322933,46.0,248.0,-1801.0
1772221948.3402932,47.0,248.0,-1801.0
1772221948.3400264,40.0,249.0,-1795.0
1772221948.3480263,40.0,250.0,-1797.0
1772221948.3624008,41.0,247.0,-1803.0
1772221948.3704007,43.0,246.0,-1801.0
1772221948.36392,44.0,247.0,-1795.0
1772221948.3719199,44.0,248.0,-1796.0
1772221948.3855033,44.0,248.0,-1801.0
1772221948.3935032,44.0,250.0,-1799.0
1772221948.387098,44.0,250.0,-1795.0
1772221948.395098,43.0,247.0,-1796.0
1772221948.4463348,40.0,247.0,-1801.0
1772221948.4543347,39.0,249.0,-1801.0
1772221948.4567838,43.0,249.0,-1796.0
1772221948.4647837,45.0,250.0,-1793.0
1772221948.4579277,42.0,249.0,-1798.0
1772221948.4659276,41.0,247.0,-1800.0
1772221948.4579277,43.0,247.0,-1798.0
1772221948.4659276,42.0,247.0,-1794.0
1772221948.459309,43.0,248.0,-1797.0
1772221948.467309,43.0,249.0,-1799.0
1772221948.4598386,45.0,250.0,-1793.0
1772221948.4678385,47.0,249.0,-1788.0
1772221948.4598386,44.0,249.0,-1792.0
1772221948.4678385,42.0,249.0,-1796.0
1772221948.4603176,40.0,248.0,-1795.0
1772221948.4683175,41.0,248.0,-1793.0
1772221948.4603176,43.0,248.0,-1796.0
1772221948.4683175,43.0,247.0,-1804.0
1772221948.4603176,43.0,249.0,-1800.0
1772221948.4683175,41.0,249.0,-1796.0
1772221948.4617248,41.0,246.0,-1799.0
1772221948.4697247,42.0,245.0,-1803.0
1772221948.4725184,40.0,245.0,-1802.0
1772221948.4805183,43.0,245.0,-1797.0
1772221948.4755428,44.0,246.0,-1795.0
1772221948.4835427,38.0,247.0,-1799.0
1772221948.505999,37.0,246.0,-1801.0
1772221948.513999,40.0,245.0,-1798.0
1772221948.505999,40.0,246.0,-1796.0
1772221948.513999,40.0,245.0,-1800.0
1772221948.5134127,41.0,244.0,-1802.0
1772221948.5214126,40.0,245.0,-1797.0
1772221948.5134127,38.0,246.0,-1794.0
1772221948.5214126,39.0,246.0,-1798.0
1772221948.5154366,39.0,246.0,-1802.0
1772221948.5234365,41.0,247.0,-1797.0
1772221948.5215647,41.0,247.0,-1795.0
1772221948.5295646,40.0,246.0,-1798.0
1772221948.5322914,40.0,247.0,-1801.0
1772221948.5402913,40.0,246.0,-1798.0
1772221948.5501978,40.0,246.0,-1797.0
1772221948.5581977,42.0,245.0,-1798.0
1772221948.5501978,39.0,245.0,-1802.0
1772221948.5581977,37.0,245.0,-1799.0
1772221948.5561993,39.0,246.0,-1796.0
1772221948.5641992,38.0,245.0,-1797.0
1772221948.563033,39.0,245.0,-1803.0
1772221948.571033,40.0,245.0,-1801.0
1772221948.571298,39.0,245.0,-1796.0
1772221948.5792978,40.0,246.0,-1796.0
1772221948.5966625,40.0,245.0,-1802.0
1772221948.6046624,41.0,246.0,-1802.0
1772221948.5981867,40.0,244.0,-1797.0
1772221948.6061866,36.0,244.0,-1794.0
1772221948.6128838,36.0,244.0,-1798.0
1772221948.6208837,37.0,243.0,-1800.0
1772221948.6128838,39.0,245.0,-1793.0
1772221948.6208837,40.0,245.0,-1785.0
1772221948.6478949,37.0,243.0,-1797.0
1772221948.6558948,38.0,244.0,-1802.0
1772221948.6486027,37.0,243.0,-1798.0
1772221948.6566026,37.0,244.0,-1792.0
1772221948.6559074,39.0,245.0,-1793.0
1772221948.6639073,39.0,243.0,-1801.0
1772221948.6559074,37.0,243.0,-1800.0
1772221948.6639073,36.0,244.0,-1795.0
1772221948.656914,36.0,244.0,-1797.0
1772221948.664914,37.0,243.0,-1800.0
1772221948.657372,38.0,243.0,-1799.0
1772221948.665372,37.0,244.0,-1795.0
1772221948.6589406,36.0,244.0,-1794.0
1772221948.6669405,36.0,244.0,-1798.0
1772221948.6667862,36.0,243.0,-1799.0
1772221948.674786,35.0,242.0,-1790.0
1772221948.6897504,37.0,244.0,-1793.0
1772221948.6977503,39.0,244.0,-1800.0
1772221948.6911175,38.0,245.0,-1801.0
1772221948.6991174,33.0,244.0,-1802.0
1772221948.6911175,33.0,243.0,-1798.0
1772221948.6991174,35.0,242.0,-1801.0
1772221948.6992354,37.0,244.0,-1802.0
1772221948.7072353,38.0,243.0,-1798.0
1772221948.70572,36.0,243.0,-1799.0
1772221948.7137198,32.0,243.0,-1802.0
1772221948.7368138,35.0,243.0,-1801.0
1772221948.7448137,39.0,245.0,-1800.0
1772221948.7368138,36.0,245.0,-1799.0
1772221948.7448137,32.0,244.0,-1802.0
1772221948.7460265,36.0,242.0,-1809.0
1772221948.7540264,37.0,244.0,-1808.0
1772221948.747783,36.0,244.0,-1802.0
1772221948.7557828,37.0,243.0,-1804.0
1772221948.7493212,36.0,244.0,-1811.0
1772221948.7573211,35.0,243.0,-1810.0
1772221948.7554586,37.0,243.0,-1804.0
1772221948.7634585,35.0,244.0,-1803.0
1772221948.7839406,34.0,245.0,-1810.0
1772221948.7919405,33.0,242.0,-1811.0
1772221948.7839406,36.0,242.0,-1802.0
1772221948.7919405,37.0,243.0,-1801.0
1772221948.7849417,35.0,243.0,-1809.0
1772221948.7929416,38.0,246.0,-1809.0
1772221948.7865334,35.0,247.0,-1803.0
1772221948.7945333,33.0,244.0,-1800.0
1772221948.7942402,36.0,243.0,-1805.0
1772221948.8022401,39.0,244.0,-1810.0
1772221948.8035793,37.0,244.0,-1804.0
1772221948.8115792,37.0,245.0,-1800.0
1772221948.8096652,40.0,246.0,-1804.0
1772221948.817665,40.0,246.0,-1807.0
1772221948.8376448,43.0,248.0,-1803.0
1772221948.8456447,44.0,250.0,-1800.0
1772221948.8391027,41.0,249.0,-1803.0
1772221948.8471026,42.0,249.0,-1804.0
1772221948.853342,44.0,249.0,-1802.0
1772221948.861342,43.0,250.0,-1798.0
1772221948.8548694,43.0,249.0,-1799.0
1772221948.8628693,43.0,249.0,-1805.0
1772221948.8820426,43.0,251.0,-1803.0
1772221948.8900425,41.0,251.0,-1796.0
1772221948.8820426,39.0,250.0,-1796.0
1772221948.8900425,40.0,250.0,-1800.0
1772221948.8845935,40.0,250.0,-1800.0
1772221948.8925934,39.0,249.0,-1795.0
1772221948.8849587,37.0,248.0,-1793.0
1772221948.8929586,38.0,248.0,-1799.0
1772221948.8849587,39.0,249.0,-1799.0
1772221948.8929586,38.0,249.0,-1794.0
1772221948.8920336,39.0,248.0,-1791.0
1772221948.9000335,40.0,249.0,-1797.0
1772221948.8996632,39.0,248.0,-1800.0
1772221948.907663,35.0,249.0,-1793.0
1772221948.9186275,35.0,249.0,-1791.0
1772221948.9266274,36.0,248.0,-1794.0
1772221948.925871,38.0,249.0,-1797.0
1772221948.9338708,37.0,249.0,-1795.0
1772221948.9271255,36.0,249.0,-1789.0
1772221948.9351254,36.0,248.0,-1793.0
1772221948.930162,35.0,248.0,-1798.0
1772221948.9381618,35.0,247.0,-1795.0
1772221948.9392414,35.0,248.0,-1790.0
1772221948.9472413,37.0,248.0,-1792.0
1772221948.9730425,37.0,248.0,-1797.0
1772221948.9810424,36.0,248.0,-1795.0
1772221948.974405,36.0,247.0,-1790.0
1772221948.982405,36.0,248.0,-1789.0
1772221948.9880502,35.0,248.0,-1793.0
1772221948.9960501,35.0,247.0,-1792.0
1772221948.9905822,36.0,247.0,-1789.0
1772221948.9985821,37.0,248.0,-1789.0
1772221948.9957414,38.0,248.0,-1792.0
1772221949.0037413,38.0,249.0,-1794.0
1772221949.0116155,37.0,249.0,-1787.0
1772221949.0196154,36.0,249.0,-1783.0
1772221949.0191214,37.0,249.0,-1788.0
1772221949.0271213,38.0,250.0,-1787.0
1772221949.0191214,40.0,251.0,-1781.0
1772221949.0271213,38.0,250.0,-1781.0
1772221949.021137,37.0,250.0,-1789.0
1772221949.029137,37.0,249.0,-1794.0
1772221949.0218556,37.0,249.0,-1791.0
1772221949.0298555,37.0,249.0,-1789.0
1772221949.0264041,39.0,250.0,-1792.0
1772221949.034404,39.0,250.0,-1795.0
1772221949.0350568,36.0,250.0,-1793.0
1772221949.0430567,35.0,250.0,-1788.0
1772221949.044136,37.0,250.0,-1790.0
1772221949.052136,37.0,249.0,-1794.0
1772221949.0762088,38.0,249.0,-1793.0
1772221949.0842087,37.0,250.0,-1789.0
1772221949.0762088,37.0,249.0,-1789.0
1772221949.0842087,36.0,249.0,-1794.0
1772221949.1128616,36.0,249.0,-1793.0
1772221949.1208615,36.0,250.0,-1790.0
1772221949.1128616,36.0,250.0,-1789.0
1772221949.1208615,36.0,250.0,-1795.0
1772221949.1361945,37.0,250.0,-1795.0
1772221949.1441944,36.0,248.0,-1792.0
1772221949.1361945,35.0,248.0,-1790.0
1772221949.1441944,36.0,248.0,-1793.0
1772221949.1477132,38.0,247.0,-1796.0
1772221949.155713,37.0,246.0,-1794.0
1772221949.1608925,35.0,245.0,-1791.0
1772221949.1688924,34.0,246.0,-1795.0
1772221949.1618934,34.0,245.0,-1797.0
1772221949.1698933,35.0,244.0,-1794.0
1772221949.1633992,36.0,244.0,-1790.0
1772221949.171399,34.0,243.0,-1796.0
1772221949.1633992,35.0,243.0,-1799.0
1772221949.171399,34.0,241.0,-1796.0
1772221949.1644068,35.0,242.0,-1791.0
1772221949.1724067,35.0,241.0,-1794.0
1772221949.164916,35.0,241.0,-1799.0
1772221949.172916,36.0,241.0,-1798.0
1772221949.164916,36.0,241.0,-1793.0
1772221949.172916,37.0,241.0,-1794.0
1772221949.1659245,37.0,241.0,-1800.0
1772221949.1739244,35.0,241.0,-1799.0
1772221949.1720328,36.0,241.0,-1797.0
1772221949.1800327,36.0,241.0,-1796.0
1772221949.181271,37.0,241.0,-1802.0
1772221949.189271,38.0,241.0,-1802.0
1772221949.2143414,37.0,241.0,-1796.0
1772221949.2223413,36.0,241.0,-1795.0
1772221949.2456522,35.0,241.0,-1800.0
1772221949.253652,35.0,240.0,-1802.0
1772221949.25247,37.0,241.0,-1798.0
1772221949.26047,36.0,241.0,-1793.0
1772221949.2526646,34.0,241.0,-1797.0
1772221949.2606645,36.0,241.0,-1801.0
1772221949.2526646,36.0,241.0,-1798.0
1772221949.2606645,38.0,242.0,-1794.0
1772221949.2526646,37.0,242.0,-1798.0
1772221949.2606645,36.0,241.0,-1801.0
1772221949.2551038,35.0,241.0,-1797.0
1772221949.2631037,37.0,241.0,-1795.0
1772221949.2551038,36.0,241.0,-1796.0
1772221949.2631037,36.0,241.0,-1798.0
1772221949.2551038,36.0,242.0,-1799.0
1772221949.2631037,37.0,242.0,-1794.0
1772221949.2586575,37.0,242.0,-1794.0
1772221949.2666574,38.0,242.0,-1800.0
1772221949.2670138,38.0,242.0,-1798.0
1772221949.2750137,37.0,242.0,-1794.0
1772221949.2755795,36.0,242.0,-1794.0
1772221949.2835793,36.0,242.0,-1797.0
1772221949.2969403,37.0,243.0,-1798.0
1772221949.3049402,37.0,243.0,-1794.0
1772221949.2969403,36.0,242.0,-1792.0
1772221949.3049402,36.0,242.0,-1796.0
1772221949.298479,36.0,242.0,-1798.0
1772221949.306479,36.0,242.0,-1794.0
1772221949.3441224,35.0,242.0,-1790.0
1772221949.3521223,37.0,242.0,-1792.0
1772221949.3441224,38.0,243.0,-1797.0
1772221949.3521223,36.0,243.0,-1794.0
1772221949.3502078,36.0,242.0,-1789.0
1772221949.3582077,37.0,244.0,-1790.0
1772221949.3519945,37.0,244.0,-1795.0
1772221949.3599944,37.0,244.0,-1793.0
1772221949.3535457,36.0,243.0,-1787.0
1772221949.3615456,36.0,243.0,-1789.0
1772221949.355071,35.0,243.0,-1796.0
1772221949.363071,35.0,243.0,-1793.0
1772221949.3565927,37.0,242.0,-1788.0
1772221949.3645926,37.0,243.0,-1788.0
1772221949.363173,36.0,243.0,-1791.0
1772221949.371173,36.0,243.0,-1791.0
1772221949.3938277,36.0,244.0,-1788.0
1772221949.4018276,35.0,244.0,-1786.0
1772221949.3938277,35.0,243.0,-1791.0
1772221949.4018276,36.0,243.0,-1791.0
1772221949.4115825,37.0,241.0,-1785.0
1772221949.4195824,36.0,242.0,-1786.0
1772221949.4115825,35.0,242.0,-1790.0
1772221949.4195824,36.0,242.0,-1791.0
1772221949.4136162,36.0,244.0,-1788.0
1772221949.421616,36.0,242.0,-1786.0
1772221949.4143856,35.0,243.0,-1788.0
1772221949.4223855,35.0,243.0,-1791.0
1772221949.439326,36.0,242.0,-1789.0
1772221949.447326,35.0,242.0,-1785.0
1772221949.4584982,34.0,243.0,-1787.0
1772221949.4664981,35.0,243.0,-1791.0
1772221949.4584982,36.0,243.0,-1789.0
1772221949.4664981,35.0,243.0,-1785.0
1772221949.4767222,35.0,243.0,-1786.0
1772221949.4847221,35.0,243.0,-1791.0
1772221949.484481,35.0,243.0,-1790.0
1772221949.492481,36.0,242.0,-1784.0
1772221949.484481,36.0,243.0,-1784.0
1772221949.492481,35.0,243.0,-1792.0
1772221949.4857285,35.0,243.0,-1791.0
1772221949.4937284,37.0,243.0,-1784.0
1772221949.4857285,37.0,244.0,-1784.0
1772221949.4937284,36.0,244.0,-1790.0
1772221949.4977822,35.0,244.0,-1793.0
1772221949.5057821,34.0,244.0,-1788.0
1772221949.499534,34.0,244.0,-1784.0
1772221949.5075338,35.0,243.0,-1791.0
1772221949.4998727,35.0,244.0,-1794.0
1772221949.5078726,35.0,244.0,-1788.0
1772221949.5071397,34.0,244.0,-1786.0
1772221949.5151396,34.0,243.0,-1790.0
1772221949.529868,35.0,243.0,-1795.0
1772221949.5378678,35.0,243.0,-1791.0
1772221949.536515,35.0,243.0,-1786.0
1772221949.544515,34.0,243.0,-1789.0
1772221949.5369396,34.0,242.0,-1794.0
1772221949.5449395,34.0,243.0,-1791.0
1772221949.5399709,35.0,243.0,-1787.0
1772221949.5479708,35.0,243.0,-1788.0
1772221949.5722194,35.0,244.0,-1793.0
1772221949.5802193,35.0,244.0,-1792.0
1772221949.5722194,35.0,244.0,-1788.0
1772221949.5802193,35.0,244.0,-1790.0
1772221949.5820303,35.0,244.0,-1793.0
1772221949.5900302,35.0,243.0,-1793.0
1772221949.5840688,35.0,243.0,-1787.0
1772221949.5920687,37.0,244.0,-1785.0
1772221949.5848,38.0,245.0,-1787.0
1772221949.5928,37.0,246.0,-1789.0
1772221949.588655,37.0,246.0,-1786.0
1772221949.596655,37.0,246.0,-1785.0
1772221949.5977628,38.0,246.0,-1789.0
1772221949.6057627,38.0,246.0,-1794.0
1772221949.6024776,36.0,246.0,-1793.0
1772221949.6104774,37.0,247.0,-1791.0
1772221949.6274507,36.0,245.0,-1795.0
1772221949.6354506,36.0,245.0,-1798.0
1772221949.6274507,38.0,245.0,-1794.0
1772221949.6354506,37.0,245.0,-1791.0
1772221949.6404488,36.0,245.0,-1793.0
1772221949.6484487,36.0,244.0,-1796.0
1772221949.6420262,36.0,245.0,-1794.0
1772221949.650026,37.0,246.0,-1789.0
1772221949.6430433,37.0,245.0,-1792.0
1772221949.6510432,36.0,245.0,-1797.0
1772221949.6510723,37.0,245.0,-1794.0
1772221949.6590722,38.0,246.0,-1789.0
1772221949.668863,38.0,246.0,-1789.0
1772221949.676863,37.0,247.0,-1794.0
1772221949.6899455,38.0,246.0,-1794.0
1772221949.6979454,37.0,246.0,-1788.0
1772221949.7166288,38.0,246.0,-1789.0
1772221949.7246287,38.0,246.0,-1794.0
1772221949.7166288,37.0,245.0,-1794.0
1772221949.7246287,37.0,246.0,-1788.0
1772221949.7186534,37.0,246.0,-1786.0
1772221949.7266533,37.0,245.0,-1789.0
1772221949.720177,37.0,245.0,-1794.0
1772221949.7281768,37.0,246.0,-1792.0
1772221949.7232268,38.0,246.0,-1787.0
1772221949.7312267,38.0,246.0,-1789.0
1772221949.7239282,38.0,247.0,-1792.0
1772221949.731928,38.0,247.0,-1790.0
1772221949.7254958,37.0,246.0,-1785.0
1772221949.7334957,38.0,246.0,-1788.0
1772221949.731723,39.0,246.0,-1791.0
1772221949.739723,39.0,247.0,-1789.0
1772221949.7405674,37.0,246.0,-1785.0
1772221949.7485673,36.0,246.0,-1786.0
1772221949.7580597,38.0,248.0,-1793.0
1772221949.7660596,38.0,248.0,-1791.0
1772221949.7641966,37.0,246.0,-1785.0
1772221949.7721965,36.0,245.0,-1785.0
1772221949.7641966,35.0,244.0,-1790.0
1772221949.7721965,34.0,244.0,-1791.0
1772221949.7692914,34.0,244.0,-1786.0
1772221949.7772913,34.0,243.0,-1784.0
1772221949.7974298,34.0,242.0,-1788.0
1772221949.8054297,34.0,242.0,-1790.0
1772221949.798998,34.0,243.0,-1786.0
1772221949.806998,35.0,244.0,-1783.0
1772221949.8271165,34.0,243.0,-1787.0
1772221949.8351164,34.0,243.0,-1790.0
1772221949.8271165,35.0,244.0,-1785.0
1772221949.8351164,34.0,245.0,-1781.0
1772221949.8284311,34.0,244.0,-1784.0
1772221949.836431,33.0,244.0,-1790.0
1772221949.8284311,33.0,243.0,-1785.0
1772221949.836431,34.0,243.0,-1779.0
1772221949.8284311,34.0,244.0,-1783.0
1772221949.836431,33.0,244.0,-1788.0
1772221949.8365998,33.0,243.0,-1786.0
1772221949.8445997,34.0,245.0,-1781.0
1772221949.8491938,33.0,244.0,-1782.0
1772221949.8571937,32.0,243.0,-1788.0
1772221949.8512597,33.0,243.0,-1788.0
1772221949.8592596,32.0,243.0,-1784.0
1772221949.867443,33.0,244.0,-1783.0
1772221949.875443,34.0,245.0,-1787.0
1772221949.8749585,33.0,245.0,-1789.0
1772221949.8829584,33.0,243.0,-1782.0
1772221949.882513,32.0,244.0,-1784.0
1772221949.890513,31.0,244.0,-1787.0
1772221949.9047978,32.0,244.0,-1787.0
1772221949.9127977,33.0,243.0,-1784.0
1772221949.9047978,34.0,245.0,-1781.0
1772221949.9127977,33.0,244.0,-1788.0
1772221949.9047978,33.0,244.0,-1790.0
1772221949.9127977,33.0,244.0,-1786.0
1772221949.9286466,33.0,245.0,-1783.0
1772221949.9366465,33.0,245.0,-1786.0
1772221949.9312165,32.0,244.0,-1787.0
1772221949.9392164,33.0,244.0,-1786.0
1772221949.952334,32.0,243.0,-1785.0
1772221949.9603338,32.0,244.0,-1787.0
1772221949.9527233,32.0,244.0,-1791.0
1772221949.9607232,33.0,245.0,-1788.0
1772221949.9527233,34.0,246.0,-1783.0
1772221949.9607232,32.0,245.0,-1785.0
1772221949.9542446,33.0,244.0,-1791.0
1772221949.9622445,33.0,245.0,-1787.0
1772221949.957522,33.0,245.0,-1785.0
1772221949.9655218,32.0,244.0,-1785.0
1772221949.9631495,32.0,244.0,-1790.0
1772221949.9711494,32.0,245.0,-1792.0
1772221949.9695323,32.0,245.0,-1785.0
1772221949.9775321,32.0,245.0,-1784.0
1772221949.9856715,33.0,245.0,-1790.0
1772221949.9936714,33.0,245.0,-1789.0
1772221949.9987836,33.0,245.0,-1788.0
1772221950.0067835,33.0,244.0,-1786.0
1772221949.9987836,31.0,244.0,-1789.0
1772221950.0067835,31.0,244.0,-1792.0
1772221950.0020845,32.0,245.0,-1789.0
1772221950.0100844,32.0,246.0,-1787.0
1772221950.0107872,32.0,244.0,-1789.0
1772221950.0187871,33.0,243.0,-1791.0
1772221950.047747,32.0,244.0,-1789.0
1772221950.0557468,33.0,245.0,-1785.0
1772221950.0487473,32.0,246.0,-1788.0
1772221950.0567472,32.0,245.0,-1792.0
1772221950.055658,33.0,246.0,-1790.0
1772221950.063658,33.0,246.0,-1785.0
1772221950.055658,32.0,248.0,-1786.0
1772221950.063658,32.0,247.0,-1791.0
1772221950.0566673,35.0,245.0,-1789.0
1772221950.0646672,35.0,246.0,-1785.0
1772221950.0614285,34.0,245.0,-1785.0
1772221950.0694284,33.0,246.0,-1792.0
1772221950.0675957,34.0,247.0,-1789.0
1772221950.0755956,35.0,247.0,-1786.0
1772221950.077859,35.0,247.0,-1785.0
1772221950.0858588,34.0,247.0,-1789.0
1772221950.0981872,34.0,247.0,-1791.0
1772221950.106187,35.0,247.0,-1787.0
1772221950.099708,35.0,247.0,-1785.0
1772221950.107708,35.0,246.0,-1789.0
1772221950.099708,35.0,246.0,-1791.0
1772221950.107708,34.0,246.0,-1787.0
1772221950.1085467,34.0,247.0,-1783.0
1772221950.1165466,33.0,246.0,-1786.0
1772221950.1147804,33.0,246.0,-1789.0
1772221950.1227803,34.0,247.0,-1788.0
1772221950.1225624,34.0,247.0,-1783.0
1772221950.1305623,35.0,246.0,-1786.0
1772221950.1320539,35.0,247.0,-1790.0
1772221950.1400537,35.0,246.0,-1786.0
1772221950.1563723,35.0,246.0,-1783.0
1772221950.1643722,34.0,246.0,-1784.0
1772221950.1581182,34.0,245.0,-1787.0
1772221950.1661181,34.0,246.0,-1786.0
1772221950.1659553,35.0,247.0,-1780.0
1772221950.1739552,36.0,247.0,-1777.0
1772221950.1706204,37.0,247.0,-1783.0
1772221950.1786203,36.0,247.0,-1783.0
1772221950.1757393,37.0,247.0,-1777.0
1772221950.1837392,37.0,248.0,-1779.0
1772221950.1804042,36.0,248.0,-1785.0
1772221950.188404,35.0,247.0,-1787.0
1772221950.2033615,35.0,246.0,-1784.0
1772221950.2113614,35.0,247.0,-1782.0
1772221950.211904,35.0,246.0,-1786.0
1772221950.219904,36.0,246.0,-1788.0
1772221950.211904,36.0,247.0,-1784.0
1772221950.219904,35.0,247.0,-1782.0
1772221950.2132328,36.0,246.0,-1785.0
1772221950.2212327,35.0,245.0,-1787.0
1772221950.2279224,35.0,246.0,-1784.0
1772221950.2359223,35.0,246.0,-1780.0
1772221950.2336988,35.0,246.0,-1783.0
1772221950.2416987,35.0,246.0,-1787.0
1772221950.2362394,35.0,246.0,-1783.0
1772221950.2442393,36.0,246.0,-1779.0
1772221950.2430003,36.0,247.0,-1781.0
1772221950.2510002,36.0,246.0,-1787.0
1772221950.3058372,36.0,247.0,-1786.0
1772221950.313837,36.0,247.0,-1780.0
1772221950.3179996,35.0,247.0,-1780.0
1772221950.3259995,35.0,246.0,-1787.0
1772221950.3179996,35.0,245.0,-1786.0
1772221950.3259995,35.0,246.0,-1781.0
1772221950.3193176,35.0,246.0,-1779.0
1772221950.3273175,35.0,246.0,-1785.0
1772221950.3205914,35.0,247.0,-1786.0
1772221950.3285913,36.0,247.0,-1782.0
1772221950.3205914,37.0,247.0,-1779.0
1772221950.3285913,36.0,247.0,-1783.0
1772221950.321596,36.0,246.0,-1788.0
1772221950.3295958,36.0,246.0,-1784.0
1772221950.322079,36.0,246.0,-1780.0
1772221950.3300788,35.0,246.0,-1783.0
1772221950.3719847,36.0,246.0,-1787.0
1772221950.3799846,37.0,246.0,-1784.0
1772221950.3719847,35.0,245.0,-1779.0
1772221950.3799846,35.0,245.0,-1782.0
1772221950.3732595,35.0,246.0,-1787.0
1772221950.3812594,36.0,246.0,-1785.0
1772221950.3893957,36.0,246.0,-1780.0
1772221950.3973956,36.0,246.0,-1781.0
1772221950.3910143,36.0,246.0,-1788.0
1772221950.3990142,36.0,246.0,-1786.0
1772221950.4102626,37.0,247.0,-1781.0
1772221950.4182625,39.0,249.0,-1780.0
1772221950.4117951,38.0,249.0,-1787.0
1772221950.419795,39.0,247.0,-1787.0
1772221950.4389024,40.0,248.0,-1783.0
1772221950.4469023,43.0,251.0,-1781.0
1772221950.4391096,47.0,255.0,-1784.0
1772221950.4471095,50.0,258.0,-1789.0
1772221950.4391096,56.0,260.0,-1784.0
1772221950.4471095,59.0,264.0,-1781.0
1772221950.4391096,66.0,267.0,-1785.0
1772221950.4471095,69.0,270.0,-1788.0
1772221950.4401107,74.0,275.0,-1784.0
1772221950.4481106,77.0,279.0,-1782.0
1772221950.44062,79.0,280.0,-1785.0
1772221950.4486198,82.0,283.0,-1788.0
1772221950.44062,84.0,286.0,-1786.0
1772221950.4486198,88.0,288.0,-1781.0
1772221950.4476871,92.0,291.0,-1784.0
1772221950.455687,96.0,293.0,-1788.0
1772221950.4476871,99.0,294.0,-1787.0
1772221950.455687,101.0,295.0,-1782.0
1772221950.4476871,103.0,295.0,-1784.0
1772221950.455687,101.0,294.0,-1788.0
1772221950.4502127,100.0,292.0,-1785.0
1772221950.4582126,100.0,292.0,-1780.0
1772221950.4747102,100.0,291.0,-1781.0
1772221950.4827101,96.0,289.0,-1785.0
1772221950.4898877,93.0,286.0,-1787.0
1772221950.4978876,91.0,284.0,-1781.0
1772221950.4898877,88.0,281.0,-1780.0
1772221950.4978876,87.0,281.0,-1784.0
1772221950.5026596,85.0,280.0,-1786.0
1772221950.5106595,82.0,278.0,-1782.0
1772221950.5029778,80.0,277.0,-1778.0
1772221950.5109777,78.0,275.0,-1783.0
1772221950.5268888,75.0,273.0,-1785.0
1772221950.5348887,72.0,271.0,-1780.0
1772221950.5268888,69.0,270.0,-1779.0
1772221950.5348887,66.0,269.0,-1783.0
1772221950.5281994,66.0,270.0,-1785.0
1772221950.5361993,67.0,269.0,-1784.0
1772221950.5281994,64.0,269.0,-1779.0
1772221950.5361993,63.0,268.0,-1782.0
1772221950.5312896,61.0,266.0,-1786.0
1772221950.5392895,59.0,265.0,-1783.0
1772221950.5385675,58.0,265.0,-1778.0
1772221950.5465674,58.0,265.0,-1779.0
1772221950.5478563,57.0,264.0,-1785.0
1772221950.5558562,57.0,263.0,-1783.0
1772221950.5731816,55.0,263.0,-1779.0
1772221950.5811815,53.0,262.0,-1779.0
1772221950.5795317,53.0,261.0,-1783.0
1772221950.5875316,52.0,261.0,-1783.0
1772221950.5936384,52.0,262.0,-1779.0
1772221950.6016383,51.0,261.0,-1777.0
1772221950.5936384,50.0,260.0,-1782.0
1772221950.6016383,50.0,260.0,-1784.0
1772221950.5962937,50.0,259.0,-1779.0
1772221950.6042936,49.0,259.0,-1777.0
1772221950.5962937,50.0,259.0,-1780.0
1772221950.6042936,49.0,259.0,-1784.0
1772221950.6201808,48.0,259.0,-1780.0
1772221950.6281807,49.0,259.0,-1775.0
1772221950.6365433,48.0,259.0,-1780.0
1772221950.6445432,48.0,258.0,-1784.0
1772221950.6378043,48.0,259.0,-1780.0
1772221950.6458042,48.0,260.0,-1776.0
1772221950.662438,48.0,260.0,-1778.0
1772221950.6704378,45.0,258.0,-1783.0
1772221950.662438,45.0,256.0,-1780.0
1772221950.6704378,48.0,258.0,-1776.0
1772221950.663441,52.0,263.0,-1777.0
1772221950.6714408,52.0,263.0,-1784.0
1772221950.663441,50.0,262.0,-1782.0
1772221950.6714408,50.0,262.0,-1776.0
1772221950.682472,49.0,261.0,-1775.0
1772221950.690472,48.0,261.0,-1779.0
1772221950.682472,48.0,261.0,-1782.0
1772221950.690472,48.0,260.0,-1777.0
1772221950.6843073,48.0,259.0,-1776.0
1772221950.6923072,47.0,259.0,-1779.0
1772221950.6857188,47.0,259.0,-1782.0
1772221950.6937187,47.0,259.0,-1779.0
1772221950.7087638,47.0,260.0,-1776.0
1772221950.7167637,47.0,260.0,-1780.0
1772221950.7102847,48.0,260.0,-1782.0
1772221950.7182846,47.0,260.0,-1778.0
1772221950.7102847,47.0,261.0,-1776.0
1772221950.7182846,47.0,260.0,-1778.0
1772221950.7231035,47.0,260.0,-1782.0
1772221950.7311034,46.0,260.0,-1780.0
1772221950.7432024,46.0,260.0,-1776.0
1772221950.7512023,46.0,260.0,-1778.0
1772221950.756627,46.0,260.0,-1781.0
1772221950.764627,47.0,260.0,-1777.0
1772221950.7698247,47.0,260.0,-1771.0
1772221950.7778246,47.0,260.0,-1770.0
1772221950.7714665,47.0,260.0,-1776.0
1772221950.7794664,47.0,260.0,-1777.0
1772221950.7730196,47.0,261.0,-1773.0
1772221950.7810194,48.0,260.0,-1775.0
1772221950.7730196,46.0,261.0,-1783.0
1772221950.7810194,44.0,260.0,-1783.0
1772221950.7764363,44.0,260.0,-1780.0
1772221950.7844362,44.0,259.0,-1779.0
1772221950.7795477,44.0,258.0,-1782.0
1772221950.7875476,45.0,259.0,-1784.0
1772221950.810014,44.0,259.0,-1778.0
1772221950.818014,44.0,258.0,-1777.0
1772221950.810014,44.0,259.0,-1782.0
1772221950.818014,44.0,259.0,-1784.0
1772221950.8113055,44.0,259.0,-1778.0
1772221950.8193054,44.0,258.0,-1775.0
1772221950.823112,44.0,259.0,-1779.0
1772221950.831112,43.0,258.0,-1782.0
1772221950.824641,44.0,259.0,-1778.0
1772221950.832641,45.0,259.0,-1775.0
1772221950.8285544,43.0,259.0,-1778.0
1772221950.8365543,42.0,258.0,-1782.0
1772221950.8471339,42.0,258.0,-1779.0
1772221950.8551338,43.0,258.0,-1775.0
1772221950.8639946,43.0,258.0,-1775.0
1772221950.8719945,43.0,256.0,-1781.0
1772221950.866031,42.0,256.0,-1780.0
1772221950.8740308,42.0,257.0,-1775.0
1772221950.8752143,42.0,257.0,-1774.0
1772221950.8832142,42.0,256.0,-1781.0
1772221950.8767269,42.0,256.0,-1781.0
1772221950.8847268,43.0,257.0,-1775.0
1772221950.8787446,42.0,257.0,-1773.0
1772221950.8867445,42.0,256.0,-1778.0
1772221950.9043198,42.0,256.0,-1781.0
1772221950.9123197,42.0,256.0,-1776.0
1772221950.904639,41.0,255.0,-1773.0
1772221950.912639,41.0,256.0,-1779.0
1772221950.923045,40.0,255.0,-1780.0
1772221950.9310448,40.0,255.0,-1774.0
1772221950.9232123,40.0,256.0,-1774.0
1772221950.9312122,41.0,255.0,-1778.0
1772221950.9247158,41.0,256.0,-1780.0
1772221950.9327157,41.0,256.0,-1777.0
1772221950.9257236,40.0,256.0,-1773.0
1772221950.9337234,40.0,256.0,-1776.0
1772221950.9452753,41.0,256.0,-1779.0
1772221950.9532752,41.0,256.0,-1777.0
1772221950.9472053,40.0,256.0,-1773.0
1772221950.9552052,39.0,255.0,-1773.0
1772221950.9472053,38.0,255.0,-1779.0
1772221950.9552052,40.0,254.0,-1779.0
1772221950.956447,40.0,255.0,-1773.0
1772221950.9644468,39.0,254.0,-1772.0
1772221950.998965,38.0,254.0,-1777.0
1772221951.006965,38.0,254.0,-1778.0
1772221950.998965,39.0,254.0,-1772.0
1772221951.006965,38.0,254.0,-1772.0
1772221951.0160255,38.0,254.0,-1777.0
1772221951.0240254,38.0,255.0,-1777.0
1772221951.0170758,39.0,255.0,-1772.0
1772221951.0250757,38.0,255.0,-1771.0
1772221951.0290256,39.0,255.0,-1776.0
1772221951.0370255,39.0,255.0,-1776.0
1772221951.0400136,39.0,256.0,-1772.0
1772221951.0480134,38.0,256.0,-1770.0
1772221951.0400136,39.0,256.0,-1776.0
1772221951.0480134,39.0,255.0,-1779.0
1772221951.0412261,39.0,256.0,-1776.0
1772221951.049226,39.0,255.0,-1772.0
1772221951.0412261,38.0,255.0,-1774.0
1772221951.049226,37.0,254.0,-1778.0
1772221951.0412261,38.0,254.0,-1776.0
1772221951.049226,38.0,256.0,-1771.0
1772221951.043282,38.0,256.0,-1773.0
1772221951.051282,37.0,255.0,-1778.0
1772221951.050969,38.0,255.0,-1778.0
1772221951.0589688,38.0,254.0,-1771.0
1772221951.0593145,37.0,254.0,-1772.0
1772221951.0673144,37.0,254.0,-1777.0
1772221951.0672073,38.0,255.0,-1778.0
1772221951.0752072,37.0,254.0,-1773.0
1772221951.0892458,37.0,254.0,-1771.0
1772221951.0972457,37.0,253.0,-1776.0
1772221951.100834,36.0,253.0,-1778.0
1772221951.1088338,36.0,254.0,-1773.0
1772221951.100834,37.0,254.0,-1771.0
1772221951.1088338,37.0,254.0,-1776.0
1772221951.1327488,37.0,253.0,-1776.0
1772221951.1407487,36.0,254.0,-1774.0
1772221951.1327488,37.0,254.0,-1771.0
1772221951.1407487,37.0,254.0,-1775.0
1772221951.1347718,37.0,255.0,-1776.0
1772221951.1427717,36.0,254.0,-1775.0
1772221951.1354644,37.0,253.0,-1772.0
1772221951.1434643,37.0,254.0,-1775.0
1772221951.1354644,38.0,255.0,-1778.0
1772221951.1434643,38.0,255.0,-1777.0
1772221951.1385443,39.0,254.0,-1771.0
1772221951.1465442,39.0,255.0,-1773.0
1772221951.1493812,39.0,255.0,-1780.0
1772221951.157381,37.0,255.0,-1778.0
1772221951.1795645,36.0,254.0,-1772.0
1772221951.1875644,37.0,254.0,-1773.0
1772221951.1795645,36.0,254.0,-1778.0
1772221951.1875644,36.0,255.0,-1779.0
1772221951.180895,37.0,255.0,-1774.0
1772221951.188895,37.0,255.0,-1772.0
1772221951.180895,37.0,254.0,-1777.0
1772221951.188895,37.0,255.0,-1778.0
1772221951.1854608,37.0,255.0,-1772.0
1772221951.1934607,37.0,256.0,-1773.0
1772221951.2295136,37.0,255.0,-1776.0
1772221951.2375135,37.0,255.0,-1780.0
1772221951.2295136,36.0,255.0,-1775.0
1772221951.2375135,37.0,254.0,-1771.0
1772221951.236146,37.0,254.0,-1774.0
1772221951.2441459,37.0,254.0,-1777.0
1772221951.2376683,37.0,255.0,-1774.0
1772221951.2456682,37.0,255.0,-1772.0
1772221951.245757,36.0,255.0,-1773.0
1772221951.253757,36.0,255.0,-1779.0
1772221951.2468874,36.0,254.0,-1777.0
1772221951.2548873,36.0,255.0,-1772.0
1772221951.2505605,36.0,255.0,-1773.0
1772221951.2585604,36.0,254.0,-1777.0
1772221951.256158,36.0,254.0,-1776.0
1772221951.264158,37.0,255.0,-1771.0
1772221951.2752128,36.0,254.0,-1771.0
1772221951.2832127,36.0,254.0,-1777.0
1772221951.2777195,36.0,254.0,-1778.0
1772221951.2857194,36.0,254.0,-1772.0
1772221951.2777195,35.0,254.0,-1773.0
1772221951.2857194,35.0,254.0,-1777.0
1772221951.2838774,35.0,254.0,-1777.0
1772221951.2918773,35.0,254.0,-1773.0
1772221951.3211346,35.0,254.0,-1772.0
1772221951.3291345,35.0,253.0,-1775.0
1772221951.3211346,35.0,253.0,-1777.0
1772221951.3291345,35.0,254.0,-1773.0
1772221951.3224196,35.0,254.0,-1769.0
1772221951.3304195,36.0,254.0,-1771.0
1772221951.3393629,36.0,254.0,-1772.0
1772221951.3473628,37.0,254.0,-1768.0
1772221951.3401823,37.0,255.0,-1765.0
1772221951.3481822,37.0,255.0,-1770.0
1772221951.3635333,36.0,255.0,-1776.0
1772221951.3715332,36.0,254.0,-1775.0
1772221951.371065,36.0,254.0,-1772.0
1772221951.3790648,35.0,254.0,-1774.0
1772221951.378161,35.0,255.0,-1778.0
1772221951.3861609,34.0,254.0,-1775.0
1772221951.378161,35.0,254.0,-1771.0
1772221951.3861609,35.0,254.0,-1772.0
1772221951.3795185,34.0,254.0,-1778.0
1772221951.3875184,34.0,254.0,-1776.0
1772221951.3795185,35.0,254.0,-1770.0
1772221951.3875184,35.0,254.0,-1770.0
1772221951.3795185,36.0,254.0,-1776.0
1772221951.3875184,35.0,254.0,-1777.0
1772221951.3882635,35.0,254.0,-1772.0
1772221951.3962634,35.0,254.0,-1769.0
1772221951.4030323,34.0,254.0,-1773.0
1772221951.4110322,34.0,253.0,-1777.0
1772221951.4143329,35.0,253.0,-1773.0
1772221951.4223328,35.0,253.0,-1771.0
1772221951.41626,35.0,253.0,-1773.0
1772221951.42426,35.0,254.0,-1777.0
1772221951.4193666,35.0,253.0,-1773.0
1772221951.4273665,34.0,253.0,-1768.0
1772221951.4275665,34.0,253.0,-1772.0
1772221951.4355664,34.0,252.0,-1775.0
1772221951.4617267,35.0,253.0,-1775.0
1772221951.4697266,35.0,254.0,-1769.0
1772221951.4617267,35.0,253.0,-1771.0
1772221951.4697266,34.0,253.0,-1776.0
1772221951.4777994,34.0,252.0,-1773.0
1772221951.4857993,34.0,253.0,-1769.0
1772221951.4788785,34.0,253.0,-1769.0
1772221951.4868784,34.0,253.0,-1774.0
1772221951.4804492,34.0,253.0,-1774.0
1772221951.488449,34.0,253.0,-1772.0
1772221951.4819613,34.0,252.0,-1770.0
1772221951.4899611,34.0,253.0,-1774.0
1772221951.4839892,34.0,253.0,-1774.0
1772221951.4919891,33.0,253.0,-1770.0
1772221951.5090525,34.0,253.0,-1768.0
1772221951.5170524,34.0,252.0,-1773.0
1772221951.510575,34.0,252.0,-1776.0
1772221951.518575,33.0,252.0,-1773.0
1772221951.510575,33.0,251.0,-1770.0
1772221951.518575,32.0,251.0,-1772.0
1772221951.5153885,33.0,252.0,-1776.0
1772221951.5233884,33.0,252.0,-1772.0
1772221951.5239265,33.0,253.0,-1768.0
1772221951.5319264,33.0,252.0,-1771.0
1772221951.5305526,33.0,252.0,-1776.0
1772221951.5385525,33.0,252.0,-1773.0
1772221951.5683174,33.0,253.0,-1768.0
1772221951.5763173,34.0,252.0,-1770.0
1772221951.5750017,34.0,252.0,-1774.0
1772221951.5830016,32.0,252.0,-1773.0
1772221951.576599,33.0,251.0,-1770.0
1772221951.5845988,33.0,252.0,-1769.0
1772221951.5827594,33.0,253.0,-1775.0
1772221951.5907593,32.0,253.0,-1775.0
1772221951.597601,34.0,253.0,-1770.0
1772221951.6056008,34.0,252.0,-1768.0
1772221951.605338,33.0,252.0,-1773.0
1772221951.613338,33.0,252.0,-1777.0
1772221951.6121163,33.0,252.0,-1770.0
1772221951.6201162,33.0,252.0,-1769.0
1772221951.6121163,33.0,252.0,-1774.0
1772221951.6201162,33.0,252.0,-1776.0
1772221951.64936,33.0,252.0,-1771.0
1772221951.6573598,33.0,252.0,-1768.0
1772221951.64936,33.0,252.0,-1771.0
1772221951.6573598,32.0,252.0,-1776.0
1772221951.6621802,32.0,252.0,-1774.0
1772221951.67018,33.0,252.0,-1768.0
1772221951.6632428,33.0,251.0,-1771.0
1772221951.6712427,33.0,251.0,-1776.0
1772221951.6663053,34.0,251.0,-1773.0
1772221951.6743052,34.0,252.0,-1768.0
1772221951.6953878,33.0,252.0,-1769.0
1772221951.7033877,33.0,252.0,-1774.0
1772221951.6953878,33.0,252.0,-1775.0
1772221951.7033877,33.0,253.0,-1768.0
1772221951.6966507,34.0,253.0,-1768.0
1772221951.7046506,33.0,252.0,-1775.0
1772221951.7027304,33.0,251.0,-1776.0
1772221951.7107303,34.0,252.0,-1769.0
1772221951.7042613,34.0,251.0,-1766.0
1772221951.7122612,33.0,250.0,-1774.0
1772221951.7042613,33.0,251.0,-1776.0
1772221951.7122612,32.0,251.0,-1771.0
1772221951.7075696,32.0,251.0,-1768.0
1772221951.7155695,33.0,252.0,-1773.0
1772221951.7111435,33.0,251.0,-1775.0
1772221951.7191434,33.0,251.0,-1771.0
1772221951.7122395,34.0,251.0,-1767.0
1772221951.7202394,33.0,252.0,-1771.0
1772221951.7152846,33.0,251.0,-1773.0
1772221951.7232845,33.0,252.0,-1771.0
1772221951.723527,32.0,252.0,-1768.0
1772221951.7315269,33.0,252.0,-1770.0
1772221951.7433052,33.0,251.0,-1774.0
1772221951.751305,32.0,251.0,-1771.0
1772221951.74483,33.0,251.0,-1766.0
1772221951.7528298,35.0,252.0,-1768.0
1772221951.7463431,34.0,252.0,-1773.0
1772221951.754343,34.0,252.0,-1772.0
1772221951.7552118,34.0,252.0,-1767.0
1772221951.7632117,34.0,253.0,-1765.0
1772221951.7631528,34.0,252.0,-1772.0
1772221951.7711527,34.0,252.0,-1773.0
1772221951.777636,35.0,253.0,-1768.0
1772221951.785636,34.0,252.0,-1766.0
1772221951.7884607,34.0,251.0,-1770.0
1772221951.7964606,33.0,251.0,-1773.0
1772221951.8041053,34.0,251.0,-1769.0
1772221951.8121052,34.0,251.0,-1765.0
1772221951.8057344,35.0,251.0,-1769.0
1772221951.8137343,34.0,251.0,-1773.0
1772221951.829208,34.0,251.0,-1771.0
1772221951.8372078,34.0,252.0,-1767.0
1772221951.830764,35.0,252.0,-1771.0
1772221951.838764,35.0,252.0,-1774.0
1772221951.830764,35.0,253.0,-1771.0
1772221951.838764,35.0,253.0,-1768.0
1772221951.8317702,34.0,253.0,-1770.0
1772221951.83977,34.0,252.0,-1774.0
1772221951.8343475,35.0,252.0,-1771.0
1772221951.8423474,35.0,253.0,-1766.0
1772221951.8435738,35.0,254.0,-1770.0
1772221951.8515737,35.0,253.0,-1774.0
1772221951.8497918,35.0,252.0,-1773.0
1772221951.8577917,35.0,252.0,-1768.0
1772221951.8584466,35.0,252.0,-1767.0
1772221951.8664465,34.0,252.0,-1773.0
1772221951.8789322,35.0,252.0,-1773.0
1772221951.8869321,35.0,252.0,-1764.0
1772221951.8844254,35.0,252.0,-1764.0
1772221951.8924253,36.0,252.0,-1766.0
1772221951.8844254,36.0,253.0,-1768.0
1772221951.8924253,37.0,254.0,-1765.0
1772221951.891948,37.0,253.0,-1763.0
1772221951.899948,36.0,254.0,-1768.0
1772221951.8980944,36.0,253.0,-1774.0
1772221951.9060943,35.0,253.0,-1771.0
1772221951.935788,35.0,252.0,-1767.0
1772221951.9437878,35.0,252.0,-1771.0
1772221951.935788,34.0,252.0,-1776.0
1772221951.9437878,34.0,252.0,-1772.0
1772221951.9373806,34.0,252.0,-1766.0
1772221951.9453804,34.0,252.0,-1768.0
1772221951.9373806,35.0,252.0,-1773.0
1772221951.9453804,36.0,252.0,-1770.0
1772221951.9395251,35.0,252.0,-1764.0
1772221951.947525,35.0,252.0,-1767.0
1772221951.9454317,35.0,253.0,-1771.0
1772221951.9534316,35.0,253.0,-1770.0
1772221951.9542227,35.0,253.0,-1767.0
1772221951.9622226,35.0,252.0,-1766.0
1772221951.9692938,36.0,252.0,-1770.0
1772221951.9772937,35.0,252.0,-1769.0
1772221951.9763365,35.0,253.0,-1766.0
1772221951.9843364,36.0,254.0,-1764.0
1772221951.9825945,36.0,253.0,-1770.0
1772221951.9905944,36.0,252.0,-1772.0
1772221951.986852,35.0,251.0,-1767.0
1772221951.9948518,34.0,251.0,-1764.0
1772221951.9941547,34.0,250.0,-1769.0
1772221952.0021546,33.0,249.0,-1770.0
1772221952.0153856,33.0,249.0,-1766.0
1772221952.0233855,32.0,248.0,-1764.0
1772221952.0228622,32.0,248.0,-1767.0
1772221952.030862,33.0,249.0,-1771.0
1772221952.0228622,33.0,249.0,-1767.0
1772221952.030862,33.0,249.0,-1763.0
1772221952.0495713,33.0,249.0,-1766.0
1772221952.0575712,33.0,248.0,-1769.0
1772221952.0495713,33.0,249.0,-1767.0
1772221952.0575712,33.0,250.0,-1762.0
1772221952.0678177,33.0,249.0,-1763.0
1772221952.0758176,32.0,248.0,-1768.0
1772221952.06936,33.0,248.0,-1767.0
1772221952.07736,33.0,249.0,-1763.0
1772221952.06936,33.0,249.0,-1763.0
1772221952.07736,32.0,249.0,-1767.0
1772221952.07067,32.0,248.0,-1768.0
